TITLE	7.3
DATA TYPE	ULTRAVIOLET SPECTRUM
ORIGIN	JASCO
OWNER	
DATE	19/12/03
TIME	15:11:35
SPECTROMETER/DATA SYSTEM	
RESOLUTION	
DELTAX	-0.1
XUNITS	NANOMETERS
YUNITS	TRANSMITTANCE
FIRSTX	  850.0000
LASTX	  350.0000
NPOINTS	    5001
FIRSTY	    85.07124
MAXY	    85.47728
MINY	     0.04119
XYDATA
850.0000	85.0712
849.9000	85.4773
849.8000	84.9855
849.7000	84.2078
849.6000	84.4039
849.5000	85.38
849.4000	85.1015
849.3000	84.1327
849.2000	83.6021
849.1000	84.1835
849.0000	84.7545
848.9000	84.3232
848.8000	83.7028
848.7000	83.9967
848.6000	84.6722
848.5000	85.1008
848.4000	84.7157
848.3000	84.2926
848.2000	84.4117
848.1000	84.7841
848.0000	84.7217
847.9000	83.866
847.8000	83.001
847.7000	83.3254
847.6000	83.8689
847.5000	83.7138
847.4000	82.4502
847.3000	82.318
847.2000	83.2437
847.1000	83.6156
847.0000	82.785
846.9000	82.0438
846.8000	82.4163
846.7000	83.6496
846.6000	83.3685
846.5000	82.5273
846.4000	82.3875
846.3000	82.9315
846.2000	83.7108
846.1000	83.4231
846.0000	82.1919
845.9000	82.3843
845.8000	83.3977
845.7000	83.8392
845.6000	82.6051
845.5000	81.5683
845.4000	82.0862
845.3000	82.8482
845.2000	82.5905
845.1000	80.4671
845.0000	80.1753
844.9000	81.1375
844.8000	81.928
844.7000	80.9272
844.6000	80.0568
844.5000	80.612
844.4000	82.0747
844.3000	81.5545
844.2000	80.1127
844.1000	79.5474
844.0000	80.2034
843.9000	80.7775
843.8000	80.069
843.7000	78.6621
843.6000	78.6631
843.5000	79.828
843.4000	80.0503
843.3000	78.7737
843.2000	77.679
843.1000	78.5426
843.0000	79.6997
842.9000	78.7373
842.8000	77.0693
842.7000	76.9891
842.6000	78.2576
842.5000	78.3447
842.4000	77.2358
842.3000	76.1023
842.2000	76.5789
842.1000	77.9076
842.0000	77.4104
841.9000	76.0349
841.8000	75.0231
841.7000	76.2073
841.6000	76.9601
841.5000	76.0324
841.4000	74.6563
841.3000	74.8701
841.2000	76.1948
841.1000	76.2893
841.0000	75.1065
840.9000	73.7209
840.8000	74.7108
840.7000	75.3482
840.6000	74.9346
840.5000	73.494
840.4000	72.8801
840.3000	73.9646
840.2000	74.5732
840.1000	73.7369
840.0000	72.2907
839.9000	72.539
839.8000	73.899
839.7000	73.4394
839.6000	72.0158
839.5000	71.1912
839.4000	72.3092
839.3000	73.4167
839.2000	72.4276
839.1000	71.5386
839.0000	71.4231
838.9000	72.7779
838.8000	73.0643
838.7000	71.5001
838.6000	70.3191
838.5000	71.0891
838.4000	72.2552
838.3000	71.5687
838.2000	70.1552
838.1000	70.0078
838.0000	71.6783
837.9000	72.0099
837.8000	70.7997
837.7000	69.8515
837.6000	70.8414
837.5000	72.1229
837.4000	71.8201
837.3000	70.2714
837.2000	70.5337
837.1000	71.9639
837.0000	72.5399
836.9000	71.1479
836.8000	70.0606
836.7000	70.8507
836.6000	72.0113
836.5000	71.4515
836.4000	70.0917
836.3000	70.0473
836.2000	71.3999
836.1000	72.1698
836.0000	71.1889
835.9000	70.1203
835.8000	70.6189
835.7000	71.8636
835.6000	71.5797
835.5000	69.8138
835.4000	69.3572
835.3000	70.7214
835.2000	71.4712
835.1000	70.6867
835.0000	69.6574
834.9000	70.7105
834.8000	72.1048
834.7000	72.1487
834.6000	70.888
834.5000	70.3547
834.4000	72.0188
834.3000	73.0642
834.2000	71.8768
834.1000	70.833
834.0000	71.1876
833.9000	72.8949
833.8000	72.8655
833.7000	71.1927
833.6000	70.758
833.5000	72.2781
833.4000	73.2042
833.3000	72.3028
833.2000	71.1491
833.1000	71.587
833.0000	72.8895
832.9000	72.7043
832.8000	71.6701
832.7000	71.3803
832.6000	72.6099
832.5000	74.4032
832.4000	73.6813
832.3000	72.8147
832.2000	73.358
832.1000	74.8646
832.0000	75.1559
831.9000	73.7737
831.8000	73.4609
831.7000	74.3512
831.6000	75.3174
831.5000	75.0434
831.4000	73.8834
831.3000	74.0174
831.2000	75.3445
831.1000	75.9295
831.0000	74.6258
830.9000	74.0485
830.8000	75.0098
830.7000	76.289
830.6000	76.1161
830.5000	74.8388
830.4000	75.2621
830.3000	77.1886
830.2000	77.8782
830.1000	77.0951
830.0000	76.306
829.9000	77.2256
829.8000	78.8714
829.7000	78.3177
829.6000	76.8721
829.5000	77.0194
829.4000	78.0122
829.3000	78.9206
829.2000	78.3191
829.1000	77.3587
829.0000	78.1538
828.9000	79.253
828.8000	79.1662
828.7000	78.5777
828.6000	78.8555
828.5000	79.8011
828.4000	80.4795
828.3000	79.8897
828.2000	79.3232
828.1000	80.4155
828.0000	81.3528
827.9000	81.0624
827.8000	80.2375
827.7000	80.3087
827.6000	81.5079
827.5000	81.103
827.4000	80.2467
827.3000	80.0729
827.2000	81.2225
827.1000	82.18
827.0000	81.8396
826.9000	81.0518
826.8000	81.6653
826.7000	82.6635
826.6000	82.7395
826.5000	81.8376
826.4000	82.0214
826.3000	83.0107
826.2000	83.5967
826.1000	82.9026
826.0000	82.0447
825.9000	82.8896
825.8000	84.0369
825.7000	83.4906
825.6000	82.5722
825.5000	82.5987
825.4000	83.8067
825.3000	83.9918
825.2000	82.6749
825.1000	82.3844
825.0000	82.9138
824.9000	84.0137
824.8000	83.7882
824.7000	82.9921
824.6000	83.2893
824.5000	84.4596
824.4000	84.4295
824.3000	83.1338
824.2000	82.7789
824.1000	83.5235
824.0000	83.8595
823.9000	82.9775
823.8000	82.069
823.7000	83.137
823.6000	83.9719
823.5000	83.5827
823.4000	82.8153
823.3000	83.2538
823.2000	84.0282
823.1000	84.3306
823.0000	83.3641
822.9000	82.7405
822.8000	83.2662
822.7000	83.7813
822.6000	83.3959
822.5000	82.2304
822.4000	82.2718
822.3000	83.3746
822.2000	83.4887
822.1000	82.556
822.0000	81.9969
821.9000	82.9517
821.8000	83.191
821.7000	82.4633
821.6000	81.2902
821.5000	81.2553
821.4000	82.398
821.3000	82.1421
821.2000	80.7843
821.1000	80.5624
821.0000	81.8094
820.9000	82.0178
820.8000	80.6149
820.7000	79.7382
820.6000	80.6299
820.5000	81.4911
820.4000	80.3444
820.3000	78.9526
820.2000	79.3966
820.1000	80.6141
820.0000	79.8246
819.9000	78.7753
819.8000	78.6494
819.7000	79.8711
819.6000	80.0636
819.5000	78.8967
819.4000	78.1628
819.3000	79.214
819.2000	79.7132
819.1000	78.7256
819.0000	77.2879
818.9000	77.6002
818.8000	78.93
818.7000	78.1355
818.6000	76.7429
818.5000	76.8504
818.4000	78.2063
818.3000	78.1816
818.2000	76.7731
818.1000	75.9368
818.0000	76.9213
817.9000	77.1648
817.8000	75.6782
817.7000	74.8739
817.6000	75.243
817.5000	76.0144
817.4000	74.9296
817.3000	73.7346
817.2000	74.0466
817.1000	75.392
817.0000	75.2932
816.9000	73.8676
816.8000	73.812
816.7000	75.1923
816.6000	75.4209
816.5000	73.8025
816.4000	72.2117
816.3000	73.0772
816.2000	73.722
816.1000	72.5774
816.0000	71.2217
815.9000	71.7788
815.8000	73.2619
815.7000	73.3523
815.6000	71.8165
815.5000	71.7417
815.4000	73.1003
815.3000	73.4453
815.2000	72.1006
815.1000	70.8404
815.0000	71.445
814.9000	72.2934
814.8000	71.2074
814.7000	69.6521
814.6000	69.9904
814.5000	71.1839
814.4000	71.0658
814.3000	69.7339
814.2000	69.663
814.1000	71.2276
814.0000	71.7116
813.9000	70.5877
813.8000	69.8079
813.7000	70.8197
813.6000	71.6712
813.5000	70.639
813.4000	69.2983
813.3000	69.6339
813.2000	71.0552
813.1000	70.567
813.0000	68.9422
812.9000	68.6669
812.8000	70.0641
812.7000	70.4654
812.6000	68.9555
812.5000	68.4788
812.4000	69.8406
812.3000	70.8106
812.2000	70.3948
812.1000	68.6729
812.0000	69.4671
811.9000	70.4133
811.8000	70.1185
811.7000	68.9477
811.6000	68.3354
811.5000	69.8013
811.4000	70.3991
811.3000	69.5727
811.2000	68.7569
811.1000	69.4594
811.0000	70.9038
810.9000	70.1682
810.8000	68.8924
810.7000	69.2135
810.6000	70.6817
810.5000	71.0268
810.4000	69.5503
810.3000	69.2112
810.2000	70.6356
810.1000	71.3155
810.0000	70.1245
809.9000	69.5233
809.8000	70.7542
809.7000	72.1164
809.6000	71.5466
809.5000	70.4713
809.4000	71.5222
809.3000	72.7666
809.2000	72.2647
809.1000	70.9898
809.0000	71.2619
808.9000	72.6018
808.8000	72.7662
808.7000	71.0753
808.6000	70.9088
808.5000	72.3733
808.4000	73.0723
808.3000	71.8176
808.2000	71.5299
808.1000	72.9569
808.0000	74.1161
807.9000	73.1876
807.8000	72.2174
807.7000	73.4066
807.6000	74.703
807.5000	74.2337
807.4000	72.9523
807.3000	73.8782
807.2000	75.4255
807.1000	75.0622
807.0000	73.8811
806.9000	73.8053
806.8000	75.0654
806.7000	75.402
806.6000	73.9137
806.5000	73.8658
806.4000	75.1115
806.3000	76.1354
806.2000	75.5969
806.1000	74.7294
806.0000	76.2175
805.9000	77.4043
805.8000	76.5562
805.7000	75.7905
805.6000	76.7449
805.5000	78.09
805.4000	77.9868
805.3000	76.9763
805.2000	77.4717
805.1000	78.9259
805.0000	78.7732
804.9000	77.7513
804.8000	78.1529
804.7000	79.2345
804.6000	79.9558
804.5000	79.1438
804.4000	79.184
804.3000	80.8383
804.2000	81.3758
804.1000	80.3165
804.0000	79.6957
803.9000	80.6497
803.8000	81.5713
803.7000	80.3471
803.6000	79.8845
803.5000	80.7399
803.4000	81.7988
803.3000	81.403
803.2000	80.7484
803.1000	81.2298
803.0000	82.1253
802.9000	81.9357
802.8000	80.9622
802.7000	81.4317
802.6000	82.4838
802.5000	82.4069
802.4000	81.7396
802.3000	81.8136
802.2000	82.8456
802.1000	83.0364
802.0000	82.152
801.9000	82.1387
801.8000	83.2005
801.7000	83.2781
801.6000	82.4573
801.5000	82.2461
801.4000	82.7933
801.3000	83.3613
801.2000	82.5501
801.1000	81.9286
801.0000	82.9742
800.9000	83.4013
800.8000	82.6121
800.7000	81.7491
800.6000	82.287
800.5000	83.3121
800.4000	82.535
800.3000	82.0159
800.2000	82.8641
800.1000	83.6721
800.0000	83.239
799.9000	82.3481
799.8000	82.9594
799.7000	83.4751
799.6000	82.9999
799.5000	82.2349
799.4000	82.8036
799.3000	83.5203
799.2000	83.0752
799.1000	82.0049
799.0000	82.38
798.9000	82.8511
798.8000	82.1127
798.7000	81.0017
798.6000	81.0284
798.5000	81.781
798.4000	81.193
798.3000	79.9607
798.2000	80.5589
798.1000	81.3968
798.0000	80.7268
797.9000	79.732
797.8000	80.2344
797.7000	81.1001
797.6000	80.4831
797.5000	79.4529
797.4000	79.7216
797.3000	80.7011
797.2000	80.1735
797.1000	78.6563
797.0000	78.6017
796.9000	79.554
796.8000	79.1736
796.7000	77.8659
796.6000	77.6453
796.5000	78.6363
796.4000	78.4938
796.3000	77.1888
796.2000	76.8656
796.1000	77.8175
796.0000	77.6082
795.9000	76.2153
795.8000	76.0097
795.7000	76.9224
795.6000	77.0981
795.5000	75.6715
795.4000	75.1033
795.3000	76.3124
795.2000	76.7047
795.1000	75.3061
795.0000	74.8459
794.9000	75.7832
794.8000	76.3304
794.7000	75.0716
794.6000	74.0064
794.5000	74.9783
794.4000	75.2051
794.3000	73.857
794.2000	72.9227
794.1000	73.5073
794.0000	74.131
793.9000	73.0271
793.8000	72.0073
793.7000	72.9911
793.6000	73.9122
793.5000	72.9091
793.4000	71.6513
793.3000	72.4833
793.2000	73.2551
793.1000	72.3266
793.0000	70.7217
792.9000	70.9519
792.8000	71.8424
792.7000	71.3852
792.6000	70.2402
792.5000	70.7589
792.4000	71.7748
792.3000	71.2869
792.2000	69.8888
792.1000	69.9835
792.0000	71.0744
791.9000	70.459
791.8000	68.9374
791.7000	69.2222
791.6000	70.5116
791.5000	70.4347
791.4000	68.9022
791.3000	69.0749
791.2000	70.4797
791.1000	70.5956
791.0000	69.1142
790.9000	69.1505
790.8000	70.6605
790.7000	70.6852
790.6000	69.3106
790.5000	68.9886
790.4000	70.1937
790.3000	70.0492
790.2000	68.5653
790.1000	68.077
790.0000	69.2361
789.9000	69.9371
789.8000	68.6803
789.7000	68.161
789.6000	69.4112
789.5000	69.7337
789.4000	68.6786
789.3000	68.0595
789.2000	69.3302
789.1000	69.7461
789.0000	68.458
788.9000	68.1004
788.8000	69.6257
788.7000	70.2033
788.6000	68.9107
788.5000	68.849
788.4000	70.0886
788.3000	70.6117
788.2000	69.1909
788.1000	68.6852
788.0000	69.8396
787.9000	70.2098
787.8000	69.0806
787.7000	68.6598
787.6000	70.12
787.5000	70.6567
787.4000	69.6153
787.3000	69.2191
787.2000	70.6675
787.1000	71.268
787.0000	70.2421
786.9000	69.6428
786.8000	71.0248
786.7000	71.8351
786.6000	71.0348
786.5000	70.296
786.4000	71.5028
786.3000	72.4714
786.2000	71.5175
786.1000	70.9001
786.0000	71.9616
785.9000	73.0693
785.8000	72.0838
785.7000	71.3552
785.6000	72.5509
785.5000	73.514
785.4000	72.6646
785.3000	71.9272
785.2000	73.0671
785.1000	73.7674
785.0000	73.1072
784.9000	72.6331
784.8000	73.6228
784.7000	74.4378
784.6000	74.0728
784.5000	73.5423
784.4000	74.8418
784.3000	75.6978
784.2000	75.1232
784.1000	74.6377
784.0000	75.6656
783.9000	76.8244
783.8000	75.8232
783.7000	75.2234
783.6000	75.9882
783.5000	76.7717
783.4000	76.1326
783.3000	75.6702
783.2000	76.75
783.1000	77.6215
783.0000	77.0628
782.9000	76.9483
782.8000	77.9372
782.7000	78.8322
782.6000	78.1775
782.5000	77.946
782.4000	78.7795
782.3000	79.459
782.2000	78.7792
782.1000	78.2475
782.0000	79.1074
781.9000	79.6826
781.8000	79.1142
781.7000	78.7944
781.6000	79.8065
781.5000	80.5045
781.4000	79.9565
781.3000	79.425
781.2000	80.3317
781.1000	81.0433
781.0000	80.5774
780.9000	80.2341
780.8000	81.096
780.7000	81.4261
780.6000	80.6329
780.5000	80.4639
780.4000	81.1516
780.3000	81.3296
780.2000	80.9789
780.1000	81.0744
780.0000	82.0235
779.9000	82.4534
779.8000	82.1351
779.7000	82.3184
779.6000	83.0927
779.5000	82.945
779.4000	82.2307
779.3000	82.1948
779.2000	82.9076
779.1000	82.8125
779.0000	82.0827
778.9000	82.3781
778.8000	82.95
778.7000	82.8426
778.6000	82.0741
778.5000	82.4583
778.4000	82.845
778.3000	82.0456
778.2000	81.6834
778.1000	82.3012
778.0000	82.6514
777.9000	81.8663
777.8000	81.4728
777.7000	82.3375
777.6000	82.9071
777.5000	81.8514
777.4000	81.6218
777.3000	82.1628
777.2000	82.2194
777.1000	81.128
777.0000	80.9399
776.9000	81.7814
776.8000	81.627
776.7000	80.7676
776.6000	80.6456
776.5000	81.3516
776.4000	81.2
776.3000	79.9346
776.2000	79.9452
776.1000	80.7591
776.0000	80.4666
775.9000	79.5806
775.8000	79.8409
775.7000	80.537
775.6000	79.9491
775.5000	78.9375
775.4000	79.0006
775.3000	79.2721
775.2000	78.6263
775.1000	77.7439
775.0000	78.0185
774.9000	78.7458
774.8000	77.7826
774.7000	76.9259
774.6000	77.3677
774.5000	77.6817
774.4000	76.7153
774.3000	76.0469
774.2000	76.6902
774.1000	76.9435
774.0000	75.9875
773.9000	75.4499
773.8000	76.0988
773.7000	76.3298
773.6000	74.9842
773.5000	74.4841
773.4000	75.2687
773.3000	75.5771
773.2000	74.3381
773.1000	73.9205
773.0000	74.8693
772.9000	74.8698
772.8000	73.5897
772.7000	73.1951
772.6000	73.9384
772.5000	73.7302
772.4000	72.4561
772.3000	72.3743
772.2000	73.1995
772.1000	72.974
772.0000	71.7903
771.9000	71.7855
771.8000	72.8842
771.7000	72.4476
771.6000	71.0578
771.5000	71.2648
771.4000	72.0949
771.3000	71.6489
771.2000	70.3878
771.1000	70.4155
771.0000	71.3247
770.9000	70.8192
770.8000	69.6854
770.7000	70.0733
770.6000	71.0047
770.5000	70.4178
770.4000	69.4641
770.3000	70.2076
770.2000	70.9074
770.1000	70.1374
770.0000	69.2283
769.9000	69.8968
769.8000	70.3555
769.7000	69.319
769.6000	68.6387
769.5000	69.4667
769.4000	69.7945
769.3000	68.4797
769.2000	68.27
769.1000	69.222
769.0000	69.5101
768.9000	68.4042
768.8000	68.6955
768.7000	69.7556
768.6000	69.6382
768.5000	68.4524
768.4000	68.7224
768.3000	69.7265
768.2000	69.2316
768.1000	68.2602
768.0000	68.8298
767.9000	69.5415
767.8000	68.9533
767.7000	68.0507
767.6000	68.9308
767.5000	69.4744
767.4000	68.3738
767.3000	68.0284
767.2000	68.8565
767.1000	69.2224
767.0000	68.2645
766.9000	68.1072
766.8000	69.3395
766.7000	69.7044
766.6000	68.7028
766.5000	69.1105
766.4000	70.1077
766.3000	70.156
766.2000	69.1546
766.1000	69.453
766.0000	70.5594
765.9000	70.0229
765.8000	69.2678
765.7000	70.0807
765.6000	70.9151
765.5000	70.4507
765.4000	69.8171
765.3000	70.8328
765.2000	71.8374
765.1000	71.1994
765.0000	70.679
764.9000	71.7385
764.8000	72.1024
764.7000	71.2195
764.6000	70.8803
764.5000	71.7346
764.4000	71.8975
764.3000	71.3387
764.2000	71.7189
764.1000	73.1914
764.0000	73.0467
763.9000	72.4181
763.8000	72.9324
763.7000	73.9243
763.6000	73.5416
763.5000	73.0393
763.4000	73.9186
763.3000	74.6116
763.2000	74.1062
763.1000	74.0801
763.0000	74.9989
762.9000	75.2893
762.8000	74.8079
762.7000	75.2876
762.6000	76.4159
762.5000	76.5997
762.4000	76.0288
762.3000	76.6059
762.2000	77.4527
762.1000	76.9567
762.0000	76.6356
761.9000	77.4867
761.8000	77.8791
761.7000	77.3682
761.6000	77.1948
761.5000	78.2728
761.4000	78.4156
761.3000	77.7562
761.2000	78.0559
761.1000	79.1185
761.0000	79.2045
760.9000	78.4233
760.8000	79.1636
760.7000	79.931
760.6000	79.4879
760.5000	79.0754
760.4000	79.8298
760.3000	80.4807
760.2000	80.0558
760.1000	80.0166
760.0000	80.8053
759.9000	81.1416
759.8000	80.6664
759.7000	80.7584
759.6000	81.4116
759.5000	81.2157
759.4000	80.4988
759.3000	81.0807
759.2000	81.6086
759.1000	81.3691
759.0000	81.12
758.9000	81.9868
758.8000	82.1777
758.7000	81.7138
758.6000	81.6945
758.5000	82.3292
758.4000	82.4455
758.3000	81.5523
758.2000	81.9911
758.1000	82.1874
758.0000	81.8345
757.9000	81.7259
757.8000	82.0939
757.7000	82.0958
757.6000	81.7912
757.5000	81.8183
757.4000	82.3888
757.3000	82.1093
757.2000	81.6514
757.1000	81.8204
757.0000	82.2411
756.9000	81.6916
756.8000	81.4918
756.7000	81.9661
756.6000	81.7723
756.5000	81.1273
756.4000	81.1834
756.3000	81.5637
756.2000	81.4633
756.1000	80.7391
756.0000	80.883
755.9000	81.3048
755.8000	80.6301
755.7000	80.1319
755.6000	80.2879
755.5000	80.3559
755.4000	79.5283
755.3000	79.409
755.2000	79.8497
755.1000	79.8729
755.0000	79.0618
754.9000	79.0387
754.8000	79.4571
754.7000	78.8513
754.6000	78.2318
754.5000	78.3959
754.4000	78.3962
754.3000	77.5709
754.2000	77.3332
754.1000	77.8123
754.0000	77.5321
753.9000	76.624
753.8000	76.9257
753.7000	77.1867
753.6000	76.4846
753.5000	75.9609
753.4000	76.2592
753.3000	76.2807
753.2000	75.1851
753.1000	74.9878
753.0000	75.3561
752.9000	74.7766
752.8000	73.9208
752.7000	73.9791
752.6000	74.2607
752.5000	73.7064
752.4000	73.3671
752.3000	74.0746
752.2000	73.945
752.1000	73.135
752.0000	73.3437
751.9000	73.7792
751.8000	72.9647
751.7000	72.0312
751.6000	72.4148
751.5000	72.6496
751.4000	71.5067
751.3000	71.3246
751.2000	71.9705
751.1000	71.855
751.0000	70.9263
750.9000	71.1868
750.8000	71.9859
750.7000	71.2963
750.6000	70.5362
750.5000	71.0653
750.4000	71.4537
750.3000	70.3467
750.2000	70.0138
750.1000	70.5488
750.0000	70.5389
749.9000	69.4813
749.8000	69.5022
749.7000	70.06
749.6000	69.4626
749.5000	68.7095
749.4000	69.2539
749.3000	69.667
749.2000	68.7567
749.1000	68.7422
749.0000	69.3831
748.9000	69.3018
748.8000	68.5354
748.7000	68.6972
748.6000	69.2905
748.5000	68.6555
748.4000	68.2088
748.3000	68.885
748.2000	68.927
748.1000	68.1665
748.0000	68.2258
747.9000	68.8514
747.8000	68.746
747.7000	67.9989
747.6000	68.5663
747.5000	69.1164
747.4000	68.4482
747.3000	68.4269
747.2000	69.075
747.1000	69.0995
747.0000	68.436
746.9000	68.7015
746.8000	69.3922
746.7000	69.1151
746.6000	68.7687
746.5000	69.5386
746.4000	69.8857
746.3000	69.2677
746.2000	69.354
746.1000	69.9888
746.0000	69.8734
745.9000	69.3506
745.8000	70.0266
745.7000	70.732
745.6000	70.4058
745.5000	70.1611
745.4000	71.0633
745.3000	71.0913
745.2000	70.4573
745.1000	70.7049
745.0000	71.2035
744.9000	71.1138
744.8000	71.0947
744.7000	71.887
744.6000	72.1245
744.5000	71.696
744.4000	72.2452
744.3000	72.9105
744.2000	72.6374
744.1000	72.3207
744.0000	73.0905
743.9000	73.5801
743.8000	73.1399
743.7000	73.4291
743.6000	74.0894
743.5000	74.3303
743.4000	73.9856
743.3000	74.5474
743.2000	74.9801
743.1000	74.7201
743.0000	74.9187
742.9000	75.5128
742.8000	75.7171
742.7000	75.2747
742.6000	75.7966
742.5000	76.3035
742.4000	75.7929
742.3000	76.1833
742.2000	76.7837
742.1000	76.8908
742.0000	76.8594
741.9000	77.2789
741.8000	77.8777
741.7000	77.6317
741.6000	77.8103
741.5000	78.5988
741.4000	78.619
741.3000	78.2595
741.2000	78.9082
741.1000	79.2942
741.0000	79.0984
740.9000	79.4147
740.8000	80.0645
740.7000	80.2645
740.6000	79.9601
740.5000	80.3192
740.4000	80.8128
740.3000	80.4251
740.2000	80.3364
740.1000	80.7689
740.0000	80.834
739.9000	80.6444
739.8000	81.0755
739.7000	81.5682
739.6000	81.3311
739.5000	81.3688
739.4000	81.8484
739.3000	81.9017
739.2000	81.5963
739.1000	81.8291
739.0000	82.4652
738.9000	82.2294
738.8000	82.0715
738.7000	82.5004
738.6000	82.4506
738.5000	82.1463
738.4000	82.2521
738.3000	82.3397
738.2000	82.2019
738.1000	81.8633
738.0000	82.1662
737.9000	82.181
737.8000	81.6431
737.7000	81.7078
737.6000	82.1125
737.5000	81.5942
737.4000	81.5556
737.3000	81.792
737.2000	81.7849
737.1000	81.3973
737.0000	81.404
736.9000	81.4271
736.8000	80.9943
736.7000	80.9017
736.6000	81.0797
736.5000	80.8606
736.4000	80.5136
736.3000	80.677
736.2000	80.6044
736.1000	80.0098
736.0000	79.657
735.9000	79.9253
735.8000	79.5554
735.7000	78.9437
735.6000	79.0541
735.5000	79.1342
735.4000	78.7645
735.3000	78.5121
735.2000	78.7444
735.1000	78.5373
735.0000	78.0013
734.9000	78.0321
734.8000	78.0279
734.7000	77.3276
734.6000	77.066
734.5000	77.2149
734.4000	76.6888
734.3000	76.201
734.2000	76.5518
734.1000	76.3517
734.0000	75.8384
733.9000	75.7616
733.8000	75.812
733.7000	75.4727
733.6000	74.9994
733.5000	75.1044
733.4000	74.8437
733.3000	74.2523
733.2000	74.0581
733.1000	74.1747
733.0000	73.7732
732.9000	73.2898
732.8000	73.5669
732.7000	73.4674
732.6000	72.7547
732.5000	72.6688
732.4000	72.854
732.3000	72.2568
732.2000	71.7842
732.1000	72.123
732.0000	72.0788
731.9000	71.4543
731.8000	71.4126
731.7000	71.6902
731.6000	71.0636
731.5000	70.4662
731.4000	70.8779
731.3000	70.7338
731.2000	70.0952
731.1000	70.2187
731.0000	70.6355
730.9000	70.3135
730.8000	69.6908
730.7000	70.1609
730.6000	70.1657
730.5000	69.4567
730.4000	69.5118
730.3000	69.8588
730.2000	69.3687
730.1000	68.9385
730.0000	69.4155
729.9000	69.2791
729.8000	68.6922
729.7000	68.988
729.6000	69.3698
729.5000	69.0423
729.4000	68.6748
729.3000	69.1341
729.2000	69.2085
729.1000	68.6016
729.0000	68.7146
728.9000	69.0926
728.8000	68.7066
728.7000	68.5824
728.6000	69.0266
728.5000	68.9474
728.4000	68.5277
728.3000	68.6935
728.2000	69.0676
728.1000	68.6752
728.0000	68.3893
727.9000	69.0522
727.8000	69.07
727.7000	68.6
727.6000	69.0407
727.5000	69.5094
727.4000	69.2918
727.3000	69.0893
727.2000	69.6867
727.1000	69.8522
727.0000	69.4513
726.9000	69.8274
726.8000	70.3165
726.7000	70.0801
726.6000	70.3001
726.5000	70.8466
726.4000	70.8943
726.3000	70.7895
726.2000	71.2699
726.1000	71.5202
726.0000	71.2681
725.9000	71.3877
725.8000	72.0113
725.7000	72.083
725.6000	71.9872
725.5000	72.5222
725.4000	72.9769
725.3000	72.7793
725.2000	73.1531
725.1000	73.4832
725.0000	73.4862
724.9000	73.7053
724.8000	74.2554
724.7000	74.3652
724.6000	74.2319
724.5000	74.7321
724.4000	75.1628
724.3000	75.0307
724.2000	75.1937
724.1000	75.618
724.0000	75.5919
723.9000	75.7535
723.8000	76.1306
723.7000	76.2325
723.6000	76.3058
723.5000	76.6948
723.4000	77.2026
723.3000	77.3214
723.2000	77.5669
723.1000	77.8805
723.0000	77.9739
722.9000	78.0247
722.8000	78.3244
722.7000	78.5788
722.6000	78.7649
722.5000	79.0495
722.4000	79.543
722.3000	79.46
722.2000	79.6461
722.1000	80.0122
722.0000	79.9764
721.9000	79.9013
721.8000	80.1633
721.7000	80.3663
721.6000	80.3857
721.5000	80.6412
721.4000	80.8482
721.3000	80.7746
721.2000	80.832
721.1000	81.0909
721.0000	81.1907
720.9000	81.1272
720.8000	81.4044
720.7000	81.5674
720.6000	81.5903
720.5000	81.6787
720.4000	81.8056
720.3000	81.9569
720.2000	82.0361
720.1000	82.1619
720.0000	81.9919
719.9000	81.9996
719.8000	81.9916
719.7000	81.9973
719.6000	81.9561
719.5000	82.0552
719.4000	82.2354
719.3000	82.2965
719.2000	82.4071
719.1000	82.5343
719.0000	82.3365
718.9000	82.0618
718.8000	82.1741
718.7000	81.9704
718.6000	81.5619
718.5000	81.7165
718.4000	81.6426
718.3000	81.3011
718.2000	80.9832
718.1000	81.0468
718.0000	80.8266
717.9000	80.747
717.8000	80.6882
717.7000	80.748
717.6000	80.4968
717.5000	80.4057
717.4000	80.3115
717.3000	79.8567
717.2000	79.5961
717.1000	79.5602
717.0000	79.4068
716.9000	79.2145
716.8000	79.1269
716.7000	78.8828
716.6000	78.4707
716.5000	78.346
716.4000	78.23
716.3000	77.5253
716.2000	77.4069
716.1000	77.5011
716.0000	77.2748
715.9000	76.6826
715.8000	76.5505
715.7000	76.3746
715.6000	75.8056
715.5000	75.6208
715.4000	75.4681
715.3000	75.0937
715.2000	74.9416
715.1000	75.0583
715.0000	74.6777
714.9000	74.3812
714.8000	74.3242
714.7000	74.1942
714.6000	73.9031
714.5000	73.7191
714.4000	73.4422
714.3000	73.2
714.2000	72.9431
714.1000	72.8229
714.0000	72.4579
713.9000	72.167
713.8000	72.2922
713.7000	71.9754
713.6000	71.608
713.5000	71.56
713.4000	71.5323
713.3000	70.9971
713.2000	70.9022
713.1000	70.9054
713.0000	70.8401
712.9000	70.7033
712.8000	70.7166
712.7000	70.4915
712.6000	70.3423
712.5000	70.4209
712.4000	70.1874
712.3000	69.8993
712.2000	70.0137
712.1000	69.9925
712.0000	69.7141
711.9000	69.6924
711.8000	69.5894
711.7000	69.3448
711.6000	69.1469
711.5000	69.049
711.4000	68.9353
711.3000	68.8485
711.2000	68.9776
711.1000	68.8968
711.0000	68.875
710.9000	68.9801
710.8000	69.0775
710.7000	68.9397
710.6000	69.0601
710.5000	69.0832
710.4000	69.0764
710.3000	69.2665
710.2000	69.4252
710.1000	69.2596
710.0000	69.2114
709.9000	69.3879
709.8000	69.4772
709.7000	69.3431
709.6000	69.5738
709.5000	69.6984
709.4000	69.7076
709.3000	69.9122
709.2000	70.1925
709.1000	70.2349
709.0000	70.2864
708.9000	70.5253
708.8000	70.5863
708.7000	70.6009
708.6000	70.8
708.5000	70.9812
708.4000	71.0402
708.3000	71.3663
708.2000	71.7499
708.1000	71.779
708.0000	72.0597
707.9000	72.3229
707.8000	72.4872
707.7000	72.6123
707.6000	72.7644
707.5000	72.9712
707.4000	73.0709
707.3000	73.3165
707.2000	73.5849
707.1000	73.7628
707.0000	73.9527
706.9000	74.3182
706.8000	74.3503
706.7000	74.4726
706.6000	74.7879
706.5000	75.0287
706.4000	75.2256
706.3000	75.6176
706.2000	75.9966
706.1000	76.1628
706.0000	76.5575
705.9000	76.8002
705.8000	76.9112
705.7000	77.1719
705.6000	77.3198
705.5000	77.5173
705.4000	77.7317
705.3000	78.0793
705.2000	78.3748
705.1000	78.5205
705.0000	78.7909
704.9000	78.9978
704.8000	79.2196
704.7000	79.4649
704.6000	79.559
704.5000	79.63
704.4000	79.8862
704.3000	79.9885
704.2000	80.1097
704.1000	80.3138
704.0000	80.5091
703.9000	80.8776
703.8000	81.1088
703.7000	81.1668
703.6000	81.3545
703.5000	81.4889
703.4000	81.3631
703.3000	81.5128
703.2000	81.7286
703.1000	81.7501
703.0000	81.844
702.9000	81.9367
702.8000	82.2661
702.7000	82.2845
702.6000	82.4511
702.5000	82.435
702.4000	82.3185
702.3000	82.6039
702.2000	82.6103
702.1000	82.411
702.0000	82.3964
701.9000	82.4311
701.8000	82.3419
701.7000	82.3659
701.6000	82.2883
701.5000	82.1059
701.4000	82.1462
701.3000	82.2638
701.2000	81.9757
701.1000	81.9405
701.0000	81.8962
700.9000	81.5685
700.8000	81.4058
700.7000	81.3759
700.6000	81.1012
700.5000	81.003
700.4000	81.0742
700.3000	80.8241
700.2000	80.5311
700.1000	80.4278
700.0000	80.2199
699.9000	79.9783
699.8000	80.022
699.7000	79.7445
699.6000	79.4258
699.5000	79.3883
699.4000	79.198
699.3000	78.7945
699.2000	78.66
699.1000	78.3088
699.0000	77.962
698.9000	77.8294
698.8000	77.6509
698.7000	77.3802
698.6000	77.138
698.5000	77.0378
698.4000	76.6699
698.3000	76.3941
698.2000	76.2849
698.1000	75.9342
698.0000	75.6126
697.9000	75.4985
697.8000	75.0998
697.7000	74.7969
697.6000	74.7459
697.5000	74.4551
697.4000	74.0734
697.3000	74.0205
697.2000	73.8762
697.1000	73.5913
697.0000	73.5471
696.9000	73.34
696.8000	73.1181
696.7000	72.9015
696.6000	72.7849
696.5000	72.5164
696.4000	72.3388
696.3000	72.1932
696.2000	72.0446
696.1000	71.8547
696.0000	71.7449
695.9000	71.4294
695.8000	71.2209
695.7000	71.2953
695.6000	71.027
695.5000	70.7207
695.4000	70.681
695.3000	70.5815
695.2000	70.3242
695.1000	70.4102
695.0000	70.2658
694.9000	70.0427
694.8000	70.1447
694.7000	70.094
694.6000	69.921
694.5000	69.9973
694.4000	70.0431
694.3000	69.8167
694.2000	69.7723
694.1000	69.8606
694.0000	69.6137
693.9000	69.5876
693.8000	69.7281
693.7000	69.671
693.6000	69.7184
693.5000	69.9104
693.4000	69.8518
693.3000	69.8838
693.2000	70.0512
693.1000	69.9718
693.0000	69.9245
692.9000	70.2384
692.8000	70.1244
692.7000	70.1147
692.6000	70.4426
692.5000	70.4889
692.4000	70.4763
692.3000	70.7647
692.2000	70.8671
692.1000	70.8482
692.0000	71.2088
691.9000	71.2107
691.8000	71.1088
691.7000	71.4876
691.6000	71.6896
691.5000	71.615
691.4000	72.0654
691.3000	72.2447
691.2000	72.1982
691.1000	72.7124
691.0000	72.9801
690.9000	72.7964
690.8000	73.2444
690.7000	73.6192
690.6000	73.658
690.5000	74.0061
690.4000	74.3354
690.3000	74.3734
690.2000	74.7533
690.1000	74.9879
690.0000	74.9264
689.9000	75.2918
689.8000	75.6467
689.7000	75.7086
689.6000	76.0472
689.5000	76.4601
689.4000	76.4699
689.3000	76.7693
689.2000	77.2607
689.1000	77.2032
689.0000	77.5116
688.9000	78.0046
688.8000	77.9714
688.7000	78.2904
688.6000	78.666
688.5000	78.6401
688.4000	78.9166
688.3000	79.2437
688.2000	79.2799
688.1000	79.5858
688.0000	79.9967
687.9000	80.0653
687.8000	80.3182
687.7000	80.6927
687.6000	80.7618
687.5000	80.8769
687.4000	81.2904
687.3000	81.3815
687.2000	81.4863
687.1000	81.87
687.0000	81.8755
686.9000	81.9579
686.8000	82.3344
686.7000	82.388
686.6000	82.3715
686.5000	82.7427
686.4000	82.6352
686.3000	82.6161
686.2000	82.8713
686.1000	82.7741
686.0000	82.7895
685.9000	83.0082
685.8000	82.9354
685.7000	82.8787
685.6000	83.0375
685.5000	83.0235
685.4000	82.8691
685.3000	83.0724
685.2000	82.823
685.1000	82.6696
685.0000	82.8163
684.9000	82.6772
684.8000	82.5258
684.7000	82.5683
684.6000	82.4031
684.5000	82.249
684.4000	82.4176
684.3000	82.1708
684.2000	81.8334
684.1000	81.9186
684.0000	81.634
683.9000	81.3979
683.8000	81.4169
683.7000	81.1746
683.6000	80.8849
683.5000	81.0637
683.4000	80.7546
683.3000	80.3634
683.2000	80.4101
683.1000	80.1168
683.0000	79.7149
682.9000	79.7318
682.8000	79.4634
682.7000	79.0208
682.6000	79.0179
682.5000	78.6998
682.4000	78.1842
682.3000	78.3171
682.2000	78.1261
682.1000	77.7617
682.0000	77.977
681.9000	77.565
681.8000	77.0868
681.7000	77.1693
681.6000	76.8923
681.5000	76.3267
681.4000	76.2724
681.3000	76.0828
681.2000	75.6149
681.1000	75.6465
681.0000	75.2391
680.9000	74.7922
680.8000	75.0014
680.7000	74.8337
680.6000	74.3092
680.5000	74.2662
680.4000	74.0681
680.3000	73.6662
680.2000	73.5624
680.1000	73.294
680.0000	72.8154
679.9000	73.01
679.8000	72.8406
679.7000	72.3913
679.6000	72.5728
679.5000	72.3738
679.4000	71.8599
679.3000	72.0787
679.2000	71.8361
679.1000	71.4121
679.0000	71.6731
678.9000	71.5353
678.8000	71.203
678.7000	71.5141
678.6000	71.2893
678.5000	71.0969
678.4000	71.3403
678.3000	71.0835
678.2000	70.7169
678.1000	71.0407
678.0000	70.8517
677.9000	70.5283
677.8000	70.9098
677.7000	70.7493
677.6000	70.5896
677.5000	70.9932
677.4000	70.8405
677.3000	70.7743
677.2000	71.2788
677.1000	71.0546
677.0000	70.9577
676.9000	71.5513
676.8000	71.2627
676.7000	71.091
676.6000	71.7313
676.5000	71.4295
676.4000	71.3928
676.3000	71.9673
676.2000	71.8041
676.1000	71.7834
676.0000	72.221
675.9000	72.0471
675.8000	72.1162
675.7000	72.5811
675.6000	72.3302
675.5000	72.4704
675.4000	73.0113
675.3000	72.8524
675.2000	72.9838
675.1000	73.5294
675.0000	73.4615
674.9000	73.6925
674.8000	74.2572
674.7000	74.1056
674.6000	74.3714
674.5000	74.8786
674.4000	74.8002
674.3000	75.2836
674.2000	75.7504
674.1000	75.6156
674.0000	76.0359
673.9000	76.5786
673.8000	76.3609
673.7000	76.685
673.6000	77.0624
673.5000	76.9123
673.4000	77.4082
673.3000	77.7827
673.2000	77.6854
673.1000	78.3217
673.0000	78.7339
672.9000	78.6278
672.8000	79.3215
672.7000	79.5467
672.6000	79.5638
672.5000	80.1997
672.4000	80.2014
672.3000	80.1671
672.2000	80.6569
672.1000	80.7011
672.0000	80.7529
671.9000	81.3679
671.8000	81.3291
671.7000	81.4722
671.6000	81.9189
671.5000	81.8299
671.4000	81.9932
671.3000	82.4258
671.2000	82.1138
671.1000	82.4516
671.0000	82.822
670.9000	82.6275
670.8000	82.9909
670.7000	83.145
670.6000	82.9811
670.5000	83.1697
670.4000	83.2822
670.3000	82.9184
670.2000	83.3015
670.1000	83.2467
670.0000	83.1181
669.9000	83.4429
669.8000	83.4247
669.7000	83.3272
669.6000	83.5454
669.5000	83.509
669.4000	83.4557
669.3000	83.6978
669.2000	83.4343
669.1000	83.3776
669.0000	83.5154
668.9000	83.1604
668.8000	83.069
668.7000	83.0366
668.6000	82.5752
668.5000	82.4451
668.4000	82.5299
668.3000	82.045
668.2000	82.0237
668.1000	82.0011
668.0000	81.568
667.9000	81.7112
667.8000	81.5857
667.7000	81.0674
667.6000	81.2344
667.5000	80.8903
667.4000	80.37
667.3000	80.5547
667.2000	80.1099
667.1000	79.7781
667.0000	79.8901
666.9000	79.4078
666.8000	79.2898
666.7000	79.3435
666.6000	78.7133
666.5000	78.6178
666.4000	78.6853
666.3000	77.9548
666.2000	77.8014
666.1000	77.7022
666.0000	77.0515
665.9000	77.2067
665.8000	77.0361
665.7000	76.523
665.6000	76.7582
665.5000	76.5068
665.4000	75.9709
665.3000	76.1658
665.2000	75.7046
665.1000	75.2303
665.0000	75.4861
664.9000	74.9204
664.8000	74.5492
664.7000	74.8348
664.6000	74.1821
664.5000	73.965
664.4000	74.2224
664.3000	73.4385
664.2000	73.5181
664.1000	73.5248
664.0000	72.7568
663.9000	73.0778
663.8000	72.9547
663.7000	72.3976
663.6000	72.7883
663.5000	72.5728
663.4000	72.1298
663.3000	72.5984
663.2000	72.1989
663.1000	71.7604
663.0000	72.2951
662.9000	71.8914
662.8000	71.7314
662.7000	72.1656
662.6000	71.725
662.5000	71.7827
662.4000	72.1369
662.3000	71.6014
662.2000	71.8221
662.1000	71.8967
662.0000	71.2945
661.9000	71.9507
661.8000	71.9829
661.7000	71.5808
661.6000	72.3266
661.5000	72.1371
661.4000	72.0634
661.3000	72.7295
661.2000	72.2167
661.1000	72.2842
661.0000	72.7347
660.9000	72.1971
660.8000	72.6355
660.7000	73.018
660.6000	72.5704
660.5000	73.3818
660.4000	73.4937
660.3000	73.3697
660.2000	74.0984
660.1000	74.011
660.0000	74.0104
659.9000	74.743
659.8000	74.4399
659.7000	74.6693
659.6000	75.226
659.5000	74.8625
659.4000	75.3155
659.3000	75.7025
659.2000	75.4456
659.1000	76.132
659.0000	76.3361
658.9000	76.3652
658.8000	77.2351
658.7000	77.2017
658.6000	77.2669
658.5000	77.947
658.4000	77.8012
658.3000	78.1207
658.2000	78.7388
658.1000	78.5524
658.0000	79.0514
657.9000	79.4041
657.8000	79.3918
657.7000	80.1089
657.6000	80.1725
657.5000	80.2322
657.4000	80.855
657.3000	80.7642
657.2000	80.8743
657.1000	81.298
657.0000	81.1567
656.9000	81.6138
656.8000	82.1039
656.7000	82.0082
656.6000	82.4201
656.5000	82.7259
656.4000	82.7113
656.3000	83.2147
656.2000	83.0453
656.1000	83.0248
656.0000	83.5167
655.9000	83.3022
655.8000	83.4043
655.7000	83.6676
655.6000	83.5353
655.5000	83.8392
655.4000	83.873
655.3000	83.7619
655.2000	84.2522
655.1000	84.0863
655.0000	84.0695
654.9000	84.3777
654.8000	84.1788
654.7000	84.4526
654.6000	84.4375
654.5000	84.1169
654.4000	84.5198
654.3000	84.2531
654.2000	83.9852
654.1000	84.091
654.0000	83.7285
653.9000	83.7434
653.8000	83.6382
653.7000	83.1849
653.6000	83.4715
653.5000	83.2775
653.4000	82.9338
653.3000	83.0786
653.2000	82.5409
653.1000	82.3828
653.0000	82.3731
652.9000	81.6968
652.8000	81.7401
652.7000	81.4657
652.6000	80.908
652.5000	81.1503
652.4000	80.6271
652.3000	80.3726
652.2000	80.5641
652.1000	79.7854
652.0000	79.9075
651.9000	79.8278
651.8000	79.1131
651.7000	79.3382
651.6000	78.8095
651.5000	78.3461
651.4000	78.6607
651.3000	77.9133
651.2000	77.7729
651.1000	77.7449
651.0000	77.0383
650.9000	77.165
650.8000	76.8601
650.7000	76.1991
650.6000	76.5159
650.5000	75.9912
650.4000	75.7643
650.3000	76.1167
650.2000	75.4504
650.1000	75.551
650.0000	75.7257
649.9000	74.9847
649.8000	75.3604
649.7000	75.0368
649.6000	74.4521
649.5000	74.8779
649.4000	74.1961
649.3000	74.1419
649.2000	74.3531
649.1000	73.5149
649.0000	73.693
648.9000	73.7005
648.8000	73.1157
648.7000	73.5686
648.6000	73.2752
648.5000	72.9076
648.4000	73.4061
648.3000	72.8148
648.2000	72.8771
648.1000	73.1792
648.0000	72.4487
647.9000	72.9537
647.8000	72.8135
647.7000	72.3665
647.6000	73.0956
647.5000	72.6765
647.4000	72.666
647.3000	73.1616
647.2000	72.562
647.1000	73.0426
647.0000	73.1541
646.9000	72.7068
646.8000	73.4887
646.7000	73.2998
646.6000	73.3869
646.5000	74.084
646.4000	73.6075
646.3000	74.0463
646.2000	74.3278
646.1000	73.865
646.0000	74.5265
645.9000	74.3878
645.8000	74.3806
645.7000	75.1557
645.6000	74.8245
645.5000	75.2301
645.4000	75.6893
645.3000	75.4201
645.2000	76.1752
645.1000	76.1671
645.0000	76.1823
644.9000	76.9542
644.8000	76.6822
644.7000	77.0101
644.6000	77.5419
644.5000	77.3696
644.4000	78.0786
644.3000	78.1789
644.2000	78.2149
644.1000	79.0304
644.0000	78.8669
643.9000	79.2632
643.8000	79.6687
643.7000	79.5753
643.6000	80.2076
643.5000	80.3008
643.4000	80.4607
643.3000	81.1339
643.2000	81.1113
643.1000	81.3771
643.0000	81.8925
642.9000	81.7599
642.8000	82.284
642.7000	82.3186
642.6000	82.4377
642.5000	82.9665
642.4000	82.8363
642.3000	83.1986
642.2000	83.5357
642.1000	83.5587
642.0000	83.909
641.9000	83.7877
641.8000	83.9427
641.7000	84.2025
641.6000	84.0386
641.5000	84.3089
641.4000	84.2655
641.3000	84.4345
641.2000	84.6828
641.1000	84.4144
641.0000	84.6454
640.9000	84.5439
640.8000	84.5413
640.7000	84.7886
640.6000	84.5995
640.5000	84.8985
640.4000	84.9497
640.3000	84.8105
640.2000	85.1128
640.1000	84.6847
640.0000	84.6073
639.9000	84.5811
639.8000	84.0674
639.7000	84.1684
639.6000	83.8563
639.5000	83.6756
639.4000	83.7698
639.3000	83.2799
639.2000	83.467
639.1000	83.2168
639.0000	82.752
638.9000	82.888
638.8000	82.3349
638.7000	82.2205
638.6000	82.1463
638.5000	81.4751
638.4000	81.5767
638.3000	81.1144
638.2000	80.7906
638.1000	80.9526
638.0000	80.2486
637.9000	80.2278
637.8000	80.0661
637.7000	79.5273
637.6000	79.6428
637.5000	79.1129
637.4000	78.8536
637.3000	78.803
637.2000	78.0626
637.1000	78.2145
637.0000	77.9112
636.9000	77.326
636.8000	77.5967
636.7000	77.0085
636.6000	76.9627
636.5000	76.9581
636.4000	76.4063
636.3000	76.8197
636.2000	76.4804
636.1000	76.007
636.0000	76.2634
635.9000	75.5
635.8000	75.6687
635.7000	75.5586
635.6000	74.8369
635.5000	75.2499
635.4000	74.7103
635.3000	74.7036
635.2000	74.9455
635.1000	74.2404
635.0000	74.5431
634.9000	74.3252
634.8000	73.98
634.7000	74.297
634.6000	73.6783
634.5000	73.8827
634.4000	74.0385
634.3000	73.4454
634.2000	74.0116
634.1000	73.8106
634.0000	73.7221
633.9000	74.1346
633.8000	73.5307
633.7000	73.9958
633.6000	74.0353
633.5000	73.7446
633.4000	74.3164
633.3000	73.7548
633.2000	74.0574
633.1000	74.377
633.0000	73.9551
632.9000	74.6738
632.8000	74.4153
632.7000	74.5809
632.6000	75.2186
632.5000	74.7084
632.4000	75.1768
632.3000	75.243
632.2000	75.1321
632.1000	75.8098
632.0000	75.4677
631.9000	75.8594
631.8000	76.2009
631.7000	75.9662
631.6000	76.6829
631.5000	76.6603
631.4000	76.8419
631.3000	77.5682
631.2000	77.3381
631.1000	77.961
631.0000	78.1411
630.9000	78.0938
630.8000	78.6727
630.7000	78.5159
630.6000	78.9276
630.5000	79.3139
630.4000	79.3353
630.3000	80.0568
630.2000	80.0875
630.1000	80.5346
630.0000	80.9107
629.9000	80.8396
629.8000	81.578
629.7000	81.614
629.6000	81.787
629.5000	82.2587
629.4000	82.1092
629.3000	82.6004
629.2000	82.7746
629.1000	82.7767
629.0000	83.3893
628.9000	83.1872
628.8000	83.5693
628.7000	83.761
628.6000	83.8553
628.5000	84.2616
628.4000	84.0618
628.3000	84.5082
628.2000	84.5467
628.1000	84.5971
628.0000	84.9662
627.9000	84.9134
627.8000	85.1436
627.7000	85.0665
627.6000	85.0223
627.5000	85.1375
627.4000	84.9097
627.3000	85.0304
627.2000	84.8567
627.1000	84.7316
627.0000	85.0029
626.9000	84.7502
626.8000	84.903
626.7000	84.8344
626.6000	84.7412
626.5000	84.7742
626.4000	84.3477
626.3000	84.5067
626.2000	84.3076
626.1000	84.0037
626.0000	84.1186
625.9000	83.6373
625.8000	83.7335
625.7000	83.4673
625.6000	83.0794
625.5000	83.146
625.4000	82.6049
625.3000	82.5762
625.2000	82.4468
625.1000	81.9727
625.0000	82.2717
624.9000	81.7343
624.8000	81.6816
624.7000	81.5339
624.6000	81.0116
624.5000	81.142
624.4000	80.3689
624.3000	80.1829
624.2000	80.0446
624.1000	79.4293
624.0000	79.5962
623.9000	78.9711
623.8000	78.953
623.7000	78.917
623.6000	78.3157
623.5000	78.5083
623.4000	77.9009
623.3000	77.7358
623.2000	77.5985
623.1000	76.9748
623.0000	77.1969
622.9000	76.5547
622.8000	76.449
622.7000	76.4612
622.6000	75.9015
622.5000	76.2758
622.4000	75.6373
622.3000	75.727
622.2000	75.8273
622.1000	75.237
622.0000	75.659
621.9000	75.1703
621.8000	75.203
621.7000	75.2113
621.6000	74.7046
621.5000	75.1757
621.4000	74.6073
621.3000	74.5567
621.2000	74.7354
621.1000	74.272
621.0000	74.7782
620.9000	74.2393
620.8000	74.3264
620.7000	74.5146
620.6000	74.2131
620.5000	74.6329
620.4000	74.2518
620.3000	74.5038
620.2000	74.7185
620.1000	74.2756
620.0000	74.766
619.9000	74.5797
619.8000	74.8346
619.7000	75.1876
619.6000	74.912
619.5000	75.538
619.4000	75.2697
619.3000	75.5394
619.2000	75.9088
619.1000	75.6262
619.0000	76.2804
618.9000	76.203
618.8000	76.5463
618.7000	76.9249
618.6000	76.7877
618.5000	77.4227
618.4000	77.432
618.3000	77.7387
618.2000	78.0636
618.1000	77.965
618.0000	78.6227
617.9000	78.5886
617.8000	78.9336
617.7000	79.3513
617.6000	79.2955
617.5000	79.8961
617.4000	79.8816
617.3000	80.2739
617.2000	80.6639
617.1000	80.5889
617.0000	81.1411
616.9000	81.2569
616.8000	81.5528
616.7000	81.8432
616.6000	81.7692
616.5000	82.3647
616.4000	82.3998
616.3000	82.6544
616.2000	82.8964
616.1000	82.9938
616.0000	83.4443
615.9000	83.3718
615.8000	83.7337
615.7000	83.9096
615.6000	84.0438
615.5000	84.4069
615.4000	84.4386
615.3000	84.7057
615.2000	84.6767
615.1000	84.8102
615.0000	84.9429
614.9000	84.9523
614.8000	85.1315
614.7000	84.9663
614.6000	85.1361
614.5000	85.0226
614.4000	84.9037
614.3000	84.9522
614.2000	84.8003
614.1000	85.0226
614.0000	84.8882
613.9000	84.9929
613.8000	85.006
613.7000	85.0009
613.6000	84.939
613.5000	84.4972
613.4000	84.4854
613.3000	84.2236
613.2000	84.1796
613.1000	83.9454
613.0000	83.7886
612.9000	83.7434
612.8000	83.4285
612.7000	83.4357
612.6000	83.0321
612.5000	82.825
612.4000	82.5259
612.3000	82.1843
612.2000	82.1005
612.1000	81.5979
612.0000	81.5811
611.9000	81.0777
611.8000	80.8432
611.7000	80.6625
611.6000	80.0831
611.5000	80.1633
611.4000	79.6289
611.3000	79.4883
611.2000	79.3001
611.1000	78.8779
611.0000	78.963
610.9000	78.3668
610.8000	78.4115
610.7000	77.9983
610.6000	77.815
610.5000	77.721
610.4000	77.2433
610.3000	77.4167
610.2000	76.8606
610.1000	76.8532
610.0000	76.544
609.9000	76.2266
609.8000	76.4636
609.7000	75.7584
609.6000	76.0044
609.5000	75.6638
609.4000	75.4619
609.3000	75.4596
609.2000	74.9077
609.1000	75.1492
609.0000	74.7317
608.9000	74.9146
608.8000	74.7274
608.7000	74.6239
608.6000	74.953
608.5000	74.5644
608.4000	74.828
608.3000	74.521
608.2000	74.5382
608.1000	74.6577
608.0000	74.3742
607.9000	74.7984
607.8000	74.3887
607.7000	74.7349
607.6000	74.8743
607.5000	74.8945
607.4000	75.2826
607.3000	74.9818
607.2000	75.5118
607.1000	75.408
607.0000	75.605
606.9000	75.7828
606.8000	75.7087
606.7000	76.2622
606.6000	76.042
606.5000	76.5139
606.4000	76.5709
606.3000	76.8753
606.2000	77.1793
606.1000	77.121
606.0000	77.6968
605.9000	77.6641
605.8000	78.1738
605.7000	78.2335
605.6000	78.4485
605.5000	79.0237
605.4000	79.0233
605.3000	79.6602
605.2000	79.7236
605.1000	80.1056
605.0000	80.5148
604.9000	80.7062
604.8000	81.001
604.7000	80.8542
604.6000	81.2915
604.5000	81.4887
604.4000	81.7855
604.3000	82.0542
604.2000	82.1561
604.1000	82.8399
604.0000	82.9025
603.9000	83.2161
603.8000	83.3881
603.7000	83.6127
603.6000	83.919
603.5000	83.93
603.4000	84.265
603.3000	84.3667
603.2000	84.5505
603.1000	84.6531
603.0000	84.7859
602.9000	84.8369
602.8000	84.8913
602.7000	85.0602
602.6000	85.0884
602.5000	85.2249
602.4000	85.247
602.3000	85.438
602.2000	85.2413
602.1000	85.257
602.0000	85.1235
601.9000	84.9865
601.8000	85.1043
601.7000	84.7938
601.6000	84.8291
601.5000	84.719
601.4000	84.7981
601.3000	84.7122
601.2000	84.5107
601.1000	84.4329
601.0000	84.1254
600.9000	83.9616
600.8000	83.551
600.7000	83.4628
600.6000	83.0474
600.5000	82.85
600.4000	82.6385
600.3000	82.3658
600.2000	82.2921
600.1000	81.9204
600.0000	81.771
599.9000	81.3117
599.8000	81.1112
599.7000	80.7666
599.6000	80.3618
599.5000	80.1644
599.4000	79.8138
599.3000	79.7457
599.2000	79.2703
599.1000	79.2342
599.0000	78.8243
598.9000	78.6425
598.8000	78.4394
598.7000	77.9509
598.6000	77.9556
598.5000	77.4478
598.4000	77.3091
598.3000	76.8935
598.2000	76.8249
598.1000	76.6413
598.0000	76.3894
597.9000	76.3729
597.8000	76.1442
597.7000	76.1908
597.6000	75.7537
597.5000	75.7764
597.4000	75.3856
597.3000	75.2916
597.2000	75.1723
597.1000	74.8981
597.0000	75.0704
596.9000	74.6464
596.8000	74.7837
596.7000	74.4915
596.6000	74.5859
596.5000	74.4542
596.4000	74.3181
596.3000	74.4859
596.2000	74.2183
596.1000	74.5573
596.0000	74.3703
595.9000	74.7379
595.8000	74.706
595.7000	74.8153
595.6000	75.0045
595.5000	75.0062
595.4000	75.2915
595.3000	75.1808
595.2000	75.5021
595.1000	75.4342
595.0000	75.7036
594.9000	75.8589
594.8000	75.9882
594.7000	76.3386
594.6000	76.328
594.5000	76.7028
594.4000	76.7685
594.3000	77.1311
594.2000	77.2723
594.1000	77.5351
594.0000	77.8645
593.9000	78.1429
593.8000	78.4921
593.7000	78.685
593.6000	79.0867
593.5000	79.3371
593.4000	79.5903
593.3000	79.8201
593.2000	80.1536
593.1000	80.449
593.0000	80.6949
592.9000	80.939
592.8000	81.2878
592.7000	81.5295
592.6000	81.6271
592.5000	81.9698
592.4000	82.3096
592.3000	82.5846
592.2000	82.6889
592.1000	82.9029
592.0000	83.2056
591.9000	83.4495
591.8000	83.7015
591.7000	83.8637
591.6000	84.0891
591.5000	84.2661
591.4000	84.4968
591.3000	84.5944
591.2000	84.6262
591.1000	84.6608
591.0000	84.7645
590.9000	84.797
590.8000	84.878
590.7000	84.9125
590.6000	84.8694
590.5000	84.9969
590.4000	84.8892
590.3000	85.0219
590.2000	84.9194
590.1000	84.8401
590.0000	84.6955
589.9000	84.5523
589.8000	84.4585
589.7000	84.2484
589.6000	84.0098
589.5000	83.7621
589.4000	83.648
589.3000	83.312
589.2000	83.106
589.1000	82.735
589.0000	82.6153
588.9000	82.4593
588.8000	82.2139
588.7000	82.0178
588.6000	81.8075
588.5000	81.6903
588.4000	81.3317
588.3000	81.0974
588.2000	80.5168
588.1000	80.358
588.0000	80.0237
587.9000	79.7252
587.8000	79.4228
587.7000	79.0487
587.6000	78.8839
587.5000	78.3955
587.4000	78.2993
587.3000	77.8049
587.2000	77.6926
587.1000	77.3236
587.0000	77.183
586.9000	76.9354
586.8000	76.6557
586.7000	76.4844
586.6000	76.2257
586.5000	75.9709
586.4000	75.6272
586.3000	75.5924
586.2000	75.2891
586.1000	75.1287
586.0000	74.846
585.9000	74.8117
585.8000	74.6495
585.7000	74.5297
585.6000	74.4669
585.5000	74.2809
585.4000	74.2913
585.3000	74.13
585.2000	74.2518
585.1000	74.0637
585.0000	74.0752
584.9000	74.0042
584.8000	74.1399
584.7000	74.1553
584.6000	74.2586
584.5000	74.3042
584.4000	74.3685
584.3000	74.4487
584.2000	74.3571
584.1000	74.5535
584.0000	74.4834
583.9000	74.7407
583.8000	74.7264
583.7000	74.8458
583.6000	75.118
583.5000	75.3691
583.4000	75.7035
583.3000	75.8289
583.2000	76.1584
583.1000	76.3548
583.0000	76.5835
582.9000	76.7552
582.8000	77.0572
582.7000	77.2567
582.6000	77.4937
582.5000	77.7595
582.4000	78.0752
582.3000	78.4357
582.2000	78.6831
582.1000	78.9821
582.0000	79.2733
581.9000	79.6411
581.8000	79.9648
581.7000	80.2831
581.6000	80.4589
581.5000	80.8104
581.4000	81.2604
581.3000	81.5632
581.2000	81.8416
581.1000	81.9996
581.0000	82.3209
580.9000	82.6166
580.8000	82.6508
580.7000	82.7499
580.6000	82.9241
580.5000	83.0978
580.4000	83.2444
580.3000	83.4225
580.2000	83.56
580.1000	83.7479
580.0000	83.9475
579.9000	84.1112
579.8000	84.2304
579.7000	84.2193
579.6000	84.3138
579.5000	84.3088
579.4000	84.4297
579.3000	84.2996
579.2000	84.3336
579.1000	84.2246
579.0000	84.1974
578.9000	84.0579
578.8000	83.9502
578.7000	83.8098
578.6000	83.6825
578.5000	83.5059
578.4000	83.3189
578.3000	83.167
578.2000	82.9424
578.1000	82.7446
578.0000	82.2507
577.9000	82.1436
577.8000	81.8659
577.7000	81.589
577.6000	81.2941
577.5000	81.0456
577.4000	80.7632
577.3000	80.4755
577.2000	80.23
577.1000	79.8884
577.0000	79.5744
576.9000	79.2806
576.8000	78.979
576.7000	78.6606
576.6000	78.3566
576.5000	78.0045
576.4000	77.7391
576.3000	77.5026
576.2000	77.1226
576.1000	76.8927
576.0000	76.5356
575.9000	76.2611
575.8000	76.0037
575.7000	75.8185
575.6000	75.4025
575.5000	75.2086
575.4000	74.9421
575.3000	74.7287
575.2000	74.4553
575.1000	74.1497
575.0000	73.9466
574.9000	73.8903
574.8000	73.7618
574.7000	73.6415
574.6000	73.5435
574.5000	73.3521
574.4000	73.3856
574.3000	73.2212
574.2000	73.243
574.1000	73.1196
574.0000	73.0518
573.9000	72.9849
573.8000	72.9797
573.7000	73.0373
573.6000	73.0868
573.5000	73.1426
573.4000	73.2061
573.3000	73.291
573.2000	73.4732
573.1000	73.4478
573.0000	73.6656
572.9000	73.8218
572.8000	73.9542
572.7000	74.2399
572.6000	74.4651
572.5000	74.6835
572.4000	74.7406
572.3000	75.1184
572.2000	75.3386
572.1000	75.6061
572.0000	75.766
571.9000	76.1085
571.8000	76.4234
571.7000	76.7749
571.6000	76.8322
571.5000	77.2618
571.4000	77.4398
571.3000	77.8592
571.2000	78.1133
571.1000	78.4881
571.0000	78.7214
570.9000	79.1979
570.8000	79.4664
570.7000	79.8454
570.6000	80.0357
570.5000	80.4685
570.4000	80.6769
570.3000	81.0723
570.2000	81.3177
570.1000	81.5955
570.0000	81.9028
569.9000	82.1543
569.8000	82.4646
569.7000	82.7866
569.6000	82.897
569.5000	82.959
569.4000	83.1625
569.3000	83.3427
569.2000	83.5218
569.1000	83.6305
569.0000	83.6827
568.9000	83.624
568.8000	83.6589
568.7000	83.4274
568.6000	83.4188
568.5000	83.2796
568.4000	83.3137
568.3000	83.2547
568.2000	83.1761
568.1000	83.0732
568.0000	83.1293
567.9000	83.0023
567.8000	82.7574
567.7000	82.4391
567.6000	82.3746
567.5000	82.0213
567.4000	81.8493
567.3000	81.4781
567.2000	81.4333
567.1000	81.2216
567.0000	81.074
566.9000	80.7191
566.8000	80.5618
566.7000	80.1306
566.6000	79.8353
566.5000	79.4233
566.4000	78.9584
566.3000	78.5991
566.2000	78.2418
566.1000	77.86
566.0000	77.4973
565.9000	77.26
565.8000	77.0119
565.7000	76.7473
565.6000	76.4099
565.5000	76.0055
565.4000	75.5189
565.3000	75.2089
565.2000	74.7205
565.1000	74.4141
565.0000	74.0938
564.9000	73.9542
564.8000	73.6817
564.7000	73.584
564.6000	73.3779
564.5000	73.352
564.4000	72.9884
564.3000	73.0934
564.2000	72.8309
564.1000	72.732
564.0000	72.437
563.9000	72.4161
563.8000	72.2115
563.7000	72.1038
563.6000	71.8078
563.5000	71.9911
563.4000	71.7843
563.3000	71.886
563.2000	71.8552
563.1000	72.0233
563.0000	71.9976
562.9000	72.1972
562.8000	72.1186
562.7000	72.2867
562.6000	72.3059
562.5000	72.5529
562.4000	72.6333
562.3000	72.9432
562.2000	73.1066
562.1000	73.4307
562.0000	73.5479
561.9000	73.7942
561.8000	74.0617
561.7000	74.325
561.6000	74.5589
561.5000	74.8878
561.4000	75.1347
561.3000	75.4068
561.2000	75.5625
561.1000	75.8458
561.0000	76.2023
560.9000	76.6069
560.8000	76.917
560.7000	77.2354
560.6000	77.8166
560.5000	78.2004
560.4000	78.6061
560.3000	78.8462
560.2000	79.3429
560.1000	79.6648
560.0000	79.9397
559.9000	80.2402
559.8000	80.4993
559.7000	80.697
559.6000	80.9045
559.5000	81.1839
559.4000	81.3724
559.3000	81.4552
559.2000	81.607
559.1000	81.8769
559.0000	82.116
558.9000	82.2261
558.8000	82.3475
558.7000	82.5355
558.6000	82.641
558.5000	82.7482
558.4000	82.6317
558.3000	82.6376
558.2000	82.7274
558.1000	82.6535
558.0000	82.5245
557.9000	82.4893
557.8000	82.3051
557.7000	82.2992
557.6000	81.9779
557.5000	81.8669
557.4000	81.5803
557.3000	81.3941
557.2000	81.0703
557.1000	80.9566
557.0000	80.5258
556.9000	80.4201
556.8000	79.9665
556.7000	79.773
556.6000	79.3622
556.5000	79.0918
556.4000	78.5883
556.3000	78.3177
556.2000	77.6512
556.1000	77.4808
556.0000	76.9107
555.9000	76.6587
555.8000	76.0692
555.7000	76.0118
555.6000	75.4908
555.5000	75.3844
555.4000	74.861
555.3000	74.6586
555.2000	74.2942
555.1000	74.0643
555.0000	73.5936
554.9000	73.3273
554.8000	73.0613
554.7000	72.9985
554.6000	72.7394
554.5000	72.45
554.4000	72.1495
554.3000	72.0386
554.2000	71.8343
554.1000	71.5339
554.0000	71.3342
553.9000	71.1352
553.8000	71.0867
553.7000	70.8909
553.6000	70.8954
553.5000	70.7627
553.4000	70.8147
553.3000	70.687
553.2000	70.8442
553.1000	70.8599
553.0000	70.9871
552.9000	70.8182
552.8000	71.025
552.7000	70.9218
552.6000	71.2031
552.5000	70.967
552.4000	71.3473
552.3000	71.3811
552.2000	71.7825
552.1000	71.809
552.0000	72.2413
551.9000	72.4259
551.8000	72.97
551.7000	73.0325
551.6000	73.5323
551.5000	73.7061
551.4000	74.2061
551.3000	74.3702
551.2000	74.8086
551.1000	75.0715
551.0000	75.5028
550.9000	75.8786
550.8000	76.1307
550.7000	76.4421
550.6000	76.6805
550.5000	77.05
550.4000	77.2109
550.3000	77.5813
550.2000	77.7518
550.1000	78.3868
550.0000	78.6662
549.9000	79.1014
549.8000	79.2186
549.7000	79.6953
549.6000	80.0306
549.5000	80.3703
549.4000	80.4926
549.3000	80.8931
549.2000	81.0798
549.1000	81.325
549.0000	81.3076
548.9000	81.3465
548.8000	81.5757
548.7000	81.5316
548.6000	81.6641
548.5000	81.6422
548.4000	81.7172
548.3000	81.5663
548.2000	81.6245
548.1000	81.2979
548.0000	81.3653
547.9000	81.0119
547.8000	80.9366
547.7000	80.688
547.6000	80.5098
547.5000	80.1255
547.4000	79.8519
547.3000	79.4965
547.2000	79.2139
547.1000	78.9173
547.0000	78.5602
546.9000	78.3497
546.8000	77.9454
546.7000	77.6487
546.6000	77.1829
546.5000	77.0026
546.4000	76.4499
546.3000	76.3033
546.2000	75.8104
546.1000	75.5763
546.0000	74.9461
545.9000	74.6576
545.8000	74.0011
545.7000	73.7774
545.6000	73.2557
545.5000	73.0196
545.4000	72.5584
545.3000	72.2374
545.2000	71.9929
545.1000	71.5768
545.0000	71.296
544.9000	70.8544
544.8000	70.8586
544.7000	70.4805
544.6000	70.4035
544.5000	69.9874
544.4000	70.048
544.3000	69.586
544.2000	69.699
544.1000	69.4138
544.0000	69.5337
543.9000	69.2897
543.8000	69.3197
543.7000	69.1838
543.6000	69.198
543.5000	69.0528
543.4000	68.9706
543.3000	69.1336
543.2000	69.1744
543.1000	69.4371
543.0000	69.4885
542.9000	69.8759
542.8000	69.7923
542.7000	70.2465
542.6000	70.1041
542.5000	70.6568
542.4000	70.6411
542.3000	71.1545
542.2000	71.4083
542.1000	71.8388
542.0000	72.1603
541.9000	72.4915
541.8000	72.8731
541.7000	73.0964
541.6000	73.6317
541.5000	73.7555
541.4000	74.2761
541.3000	74.5004
541.2000	75.0718
541.1000	75.2634
541.0000	75.8782
540.9000	76.1395
540.8000	76.5875
540.7000	76.8229
540.6000	77.1375
540.5000	77.565
540.4000	77.73
540.3000	78.2099
540.2000	78.3593
540.1000	78.8076
540.0000	79.0478
539.9000	79.3627
539.8000	79.5613
539.7000	79.9086
539.6000	80.075
539.5000	80.1839
539.4000	80.3342
539.3000	80.3967
539.2000	80.5525
539.1000	80.3285
539.0000	80.4584
538.9000	80.3455
538.8000	80.406
538.7000	80.2122
538.6000	80.2002
538.5000	80.121
538.4000	79.9291
538.3000	79.9666
538.2000	79.6667
538.1000	79.5635
538.0000	79.0501
537.9000	78.8137
537.8000	78.509
537.7000	78.1658
537.6000	77.5736
537.5000	77.2449
537.4000	76.9535
537.3000	76.5956
537.2000	76.1845
537.1000	75.6979
537.0000	75.672
536.9000	75.1653
536.8000	74.9391
536.7000	74.2526
536.6000	74.0955
536.5000	73.5593
536.4000	73.1804
536.3000	72.7531
536.2000	72.4209
536.1000	72.1842
536.0000	71.6349
535.9000	71.3388
535.8000	70.6716
535.7000	70.5624
535.6000	69.8469
535.5000	69.7046
535.4000	69.2541
535.3000	69.1023
535.2000	68.9575
535.1000	68.7407
535.0000	68.544
534.9000	68.2893
534.8000	68.3252
534.7000	68.046
534.6000	68.1779
534.5000	67.8527
534.4000	67.9971
534.3000	67.7979
534.2000	68.0397
534.1000	67.955
534.0000	68.0022
533.9000	68.1485
533.8000	68.1088
533.7000	68.3617
533.6000	68.4362
533.5000	68.8329
533.4000	68.8035
533.3000	69.3733
533.2000	69.4173
533.1000	69.8428
533.0000	69.9703
532.9000	70.28
532.8000	70.5494
532.7000	70.7473
532.6000	71.2247
532.5000	71.525
532.4000	72.0689
532.3000	72.3389
532.2000	72.9498
532.1000	73.1852
532.0000	73.6641
531.9000	74.0228
531.8000	74.4107
531.7000	74.8139
531.6000	75.1849
531.5000	75.6829
531.4000	75.977
531.3000	76.4436
531.2000	76.7731
531.1000	77.2556
531.0000	77.666
530.9000	77.9934
530.8000	78.2877
530.7000	78.4872
530.6000	78.7591
530.5000	78.8421
530.4000	79.0144
530.3000	79.1632
530.2000	79.42
530.1000	79.5719
530.0000	79.6532
529.9000	79.7618
529.8000	79.7051
529.7000	79.802
529.6000	79.5571
529.5000	79.4782
529.4000	79.3276
529.3000	79.1369
529.2000	79.0465
529.1000	78.7822
529.0000	78.5936
528.9000	78.2659
528.8000	78.0752
528.7000	77.6937
528.6000	77.3879
528.5000	77.0257
528.4000	76.5493
528.3000	76.3235
528.2000	75.7967
528.1000	75.5757
528.0000	75.0015
527.9000	74.6708
527.8000	74.18
527.7000	73.717
527.6000	73.3
527.5000	72.7484
527.4000	72.4799
527.3000	71.9114
527.2000	71.7271
527.1000	71.1809
527.0000	70.9181
526.9000	70.3742
526.8000	69.9981
526.7000	69.632
526.6000	69.1203
526.5000	68.8354
526.4000	68.4593
526.3000	68.3338
526.2000	67.8839
526.1000	67.8613
526.0000	67.5993
525.9000	67.4777
525.8000	67.4506
525.7000	67.1556
525.6000	67.2137
525.5000	66.9934
525.4000	67.1113
525.3000	67.0006
525.2000	67.024
525.1000	67.1464
525.0000	67.2143
524.9000	67.4098
524.8000	67.3499
524.7000	67.6665
524.6000	67.6394
524.5000	67.8806
524.4000	67.9572
524.3000	68.1765
524.2000	68.5113
524.1000	68.6852
524.0000	69.0605
523.9000	69.3631
523.8000	69.8382
523.7000	70.059
523.6000	70.3382
523.5000	70.7769
523.4000	71.089
523.3000	71.5388
523.2000	71.9519
523.1000	72.4521
523.0000	72.958
522.9000	73.3752
522.8000	73.9211
522.7000	74.1439
522.6000	74.6474
522.5000	74.8315
522.4000	75.2677
522.3000	75.7743
522.2000	76.047
522.1000	76.5019
522.0000	76.8719
521.9000	77.2233
521.8000	77.5628
521.7000	77.796
521.6000	78.0401
521.5000	78.2504
521.4000	78.3812
521.3000	78.6121
521.2000	78.6948
521.1000	78.7871
521.0000	78.7963
520.9000	78.8788
520.8000	78.8129
520.7000	78.7868
520.6000	78.6452
520.5000	78.3022
520.4000	78.2969
520.3000	77.9395
520.2000	77.7266
520.1000	77.3369
520.0000	77.2689
519.9000	76.9956
519.8000	76.5515
519.7000	76.3013
519.6000	75.8688
519.5000	75.5345
519.4000	75.1061
519.3000	74.6457
519.2000	74.2163
519.1000	73.6971
519.0000	73.1488
518.9000	72.5702
518.8000	72.0441
518.7000	71.7323
518.6000	71.2162
518.5000	70.7748
518.4000	70.3363
518.3000	69.9642
518.2000	69.4893
518.1000	68.9681
518.0000	68.6841
517.9000	68.2799
517.8000	67.9605
517.7000	67.5631
517.6000	67.4325
517.5000	67.4241
517.4000	67.0351
517.3000	66.9501
517.2000	66.7087
517.1000	66.6766
517.0000	66.4868
516.9000	66.2961
516.8000	66.3431
516.7000	66.2551
516.6000	66.3117
516.5000	66.3035
516.4000	66.2932
516.3000	66.4405
516.2000	66.4649
516.1000	66.6129
516.0000	66.6631
515.9000	66.9457
515.8000	67.1827
515.7000	67.3998
515.6000	67.6773
515.5000	67.9969
515.4000	68.3319
515.3000	68.4961
515.2000	68.9117
515.1000	69.3558
515.0000	69.7448
514.9000	70.1652
514.8000	70.5759
514.7000	71.1119
514.6000	71.401
514.5000	71.9238
514.4000	72.3734
514.3000	72.8544
514.2000	73.2817
514.1000	73.7387
514.0000	74.2824
513.9000	74.7431
513.8000	75.2233
513.7000	75.6573
513.6000	75.9904
513.5000	76.3334
513.4000	76.5274
513.3000	76.852
513.2000	77.1768
513.1000	77.492
513.0000	77.6177
512.9000	77.832
512.8000	78.0676
512.7000	78.2235
512.6000	78.3142
512.5000	78.2494
512.4000	78.1633
512.3000	78.1236
512.2000	78.0081
512.1000	77.9425
512.0000	77.7885
511.9000	77.6001
511.8000	77.3909
511.7000	77.0589
511.6000	76.8919
511.5000	76.4037
511.4000	76.0253
511.3000	75.7463
511.2000	75.3923
511.1000	74.9956
511.0000	74.5141
510.9000	74.1488
510.8000	73.7217
510.7000	73.1616
510.6000	72.631
510.5000	72.074
510.4000	71.6495
510.3000	71.1374
510.2000	70.6833
510.1000	70.2285
510.0000	69.771
509.9000	69.4523
509.8000	69.1196
509.7000	68.8853
509.6000	68.4564
509.5000	68.1042
509.4000	67.7431
509.3000	67.3988
509.2000	67.1242
509.1000	66.7818
509.0000	66.5953
508.9000	66.2703
508.8000	66.1594
508.7000	65.9686
508.6000	65.7922
508.5000	65.7207
508.4000	65.6
508.3000	65.5603
508.2000	65.7336
508.1000	65.8023
508.0000	65.9057
507.9000	66.02
507.8000	66.2869
507.7000	66.467
507.6000	66.7354
507.5000	67.1005
507.4000	67.4398
507.3000	67.7024
507.2000	67.9356
507.1000	68.2978
507.0000	68.6822
506.9000	69.0811
506.8000	69.4642
506.7000	69.9168
506.6000	70.3857
506.5000	70.94
506.4000	71.4932
506.3000	71.9922
506.2000	72.3304
506.1000	72.7637
506.0000	73.132
505.9000	73.6393
505.8000	74.02
505.7000	74.3901
505.6000	74.7761
505.5000	75.2241
505.4000	75.5982
505.3000	76.0028
505.2000	76.2551
505.1000	76.65
505.0000	76.9801
504.9000	77.1596
504.8000	77.411
504.7000	77.583
504.6000	77.6849
504.5000	77.7512
504.4000	77.8108
504.3000	77.7636
504.2000	77.7773
504.1000	77.7451
504.0000	77.7321
503.9000	77.3507
503.8000	77.0027
503.7000	76.838
503.6000	76.462
503.5000	76.0668
503.4000	75.6379
503.3000	75.3362
503.2000	74.9899
503.1000	74.5577
503.0000	74.0564
502.9000	73.604
502.8000	73.1289
502.7000	72.7248
502.6000	72.1836
502.5000	71.6209
502.4000	71.163
502.3000	70.698
502.2000	70.2601
502.1000	69.6935
502.0000	69.3254
501.9000	68.9012
501.8000	68.5043
501.7000	68.1088
501.6000	67.8352
501.5000	67.474
501.4000	67.0286
501.3000	66.7425
501.2000	66.5649
501.1000	66.3598
501.0000	66.0737
500.9000	65.8434
500.8000	65.8236
500.7000	65.6235
500.6000	65.5311
500.5000	65.5247
500.4000	65.4965
500.3000	65.5686
500.2000	65.7501
500.1000	65.9008
500.0000	66.15
499.9000	66.3415
499.8000	66.454
499.7000	66.8667
499.6000	67.0313
499.5000	67.2166
499.4000	67.498
499.3000	67.7147
499.2000	68.2429
499.1000	68.7003
499.0000	69.1164
498.9000	69.6839
498.8000	70.0543
498.7000	70.5464
498.6000	71.0574
498.5000	71.5852
498.4000	72.0067
498.3000	72.6729
498.2000	73.1095
498.1000	73.6946
498.0000	74.2039
497.9000	74.5772
497.8000	75.0021
497.7000	75.2607
497.6000	75.6873
497.5000	76.1169
497.4000	76.4905
497.3000	76.7416
497.2000	77.1329
497.1000	77.3635
497.0000	77.4288
496.9000	77.6305
496.8000	77.6767
496.7000	77.6894
496.6000	77.6257
496.5000	77.6061
496.4000	77.491
496.3000	77.4065
496.2000	77.156
496.1000	77.003
496.0000	76.8607
495.9000	76.5652
495.8000	76.3848
495.7000	76.1032
495.6000	75.6469
495.5000	75.3174
495.4000	74.837
495.3000	74.2777
495.2000	73.8334
495.1000	73.2801
495.0000	72.8386
494.9000	72.3404
494.8000	71.7442
494.7000	71.3342
494.6000	70.9204
494.5000	70.35
494.4000	69.9203
494.3000	69.5414
494.2000	69.0054
494.1000	68.664
494.0000	68.2187
493.9000	67.7564
493.8000	67.4758
493.7000	67.1139
493.6000	66.8471
493.5000	66.7111
493.4000	66.4565
493.3000	66.327
493.2000	66.2932
493.1000	66.1654
493.0000	66.0676
492.9000	65.9407
492.8000	65.9588
492.7000	65.959
492.6000	66.1254
492.5000	66.1262
492.4000	66.2217
492.3000	66.4359
492.2000	66.5456
492.1000	66.8955
492.0000	67.1186
491.9000	67.3748
491.8000	67.8746
491.7000	68.3388
491.6000	68.7096
491.5000	69.1445
491.4000	69.5347
491.3000	70.1177
491.2000	70.5678
491.1000	71.022
491.0000	71.5369
490.9000	72.1558
490.8000	72.6016
490.7000	73.2114
490.6000	73.7699
490.5000	74.1907
490.4000	74.5652
490.3000	75.1345
490.2000	75.5871
490.1000	75.8741
490.0000	76.1807
489.9000	76.5506
489.8000	76.9783
489.7000	77.2797
489.6000	77.3422
489.5000	77.5836
489.4000	77.711
489.3000	77.7627
489.2000	77.7898
489.1000	77.7359
489.0000	77.7074
488.9000	77.7016
488.8000	77.6378
488.7000	77.4702
488.6000	77.1581
488.5000	76.9758
488.4000	76.6711
488.3000	76.2252
488.2000	75.81
488.1000	75.4392
488.0000	74.9686
487.9000	74.5318
487.8000	74.0019
487.7000	73.5415
487.6000	73.2003
487.5000	72.5917
487.4000	72.03
487.3000	71.6259
487.2000	71.0407
487.1000	70.6185
487.0000	70.0689
486.9000	69.593
486.8000	69.2148
486.7000	68.8675
486.6000	68.389
486.5000	67.9639
486.4000	67.753
486.3000	67.444
486.2000	67.1814
486.1000	67.1034
486.0000	66.872
485.9000	66.6729
485.8000	66.6847
485.7000	66.4781
485.6000	66.5349
485.5000	66.4897
485.4000	66.3657
485.3000	66.3879
485.2000	66.6213
485.1000	66.7282
485.0000	66.8234
484.9000	66.9672
484.8000	67.1869
484.7000	67.583
484.6000	67.9319
484.5000	68.1996
484.4000	68.6708
484.3000	69.2008
484.2000	69.7147
484.1000	70.228
484.0000	70.8465
483.9000	71.2748
483.8000	71.843
483.7000	72.3739
483.6000	72.8084
483.5000	73.3433
483.4000	73.7903
483.3000	74.2272
483.2000	74.6642
483.1000	75.0944
483.0000	75.5653
482.9000	76.0031
482.8000	76.4939
482.7000	76.796
482.6000	77.0646
482.5000	77.4715
482.4000	77.6765
482.3000	77.8372
482.2000	77.9945
482.1000	78.0376
482.0000	78.0883
481.9000	78.1704
481.8000	78.0319
481.7000	77.9525
481.6000	77.6768
481.5000	77.6237
481.4000	77.3491
481.3000	77.1229
481.2000	76.9128
481.1000	76.5592
481.0000	76.1822
480.9000	75.8616
480.8000	75.4364
480.7000	74.9637
480.6000	74.4777
480.5000	73.954
480.4000	73.3555
480.3000	72.794
480.2000	72.4176
480.1000	71.8887
480.0000	71.3747
479.9000	71.0154
479.8000	70.5908
479.7000	70.0938
479.6000	69.7367
479.5000	69.3156
479.4000	68.8887
479.3000	68.5835
479.2000	68.2289
479.1000	67.9231
479.0000	67.7763
478.9000	67.4579
478.8000	67.0905
478.7000	67.0571
478.6000	67.0454
478.5000	66.9534
478.4000	66.9766
478.3000	67.1133
478.2000	67.2047
478.1000	67.4336
478.0000	67.7306
477.9000	67.8756
477.8000	68.0393
477.7000	68.4304
477.6000	68.7376
477.5000	69.0596
477.4000	69.5341
477.3000	70.0256
477.2000	70.3876
477.1000	70.9502
477.0000	71.4286
476.9000	71.8727
476.8000	72.4685
476.7000	72.9232
476.6000	73.4014
476.5000	73.9733
476.4000	74.4846
476.3000	74.9525
476.2000	75.4017
476.1000	75.8502
476.0000	76.2238
475.9000	76.5428
475.8000	76.9931
475.7000	77.3915
475.6000	77.7353
475.5000	78.0907
475.4000	78.3776
475.3000	78.5809
475.2000	78.7968
475.1000	78.7896
475.0000	78.8033
474.9000	78.6585
474.8000	78.517
474.7000	78.3691
474.6000	78.2298
474.5000	78.0365
474.4000	77.7605
474.3000	77.4796
474.2000	77.1919
474.1000	76.9763
474.0000	76.611
473.9000	76.0569
473.8000	75.4938
473.7000	75.1597
473.6000	74.5521
473.5000	73.9687
473.4000	73.4124
473.3000	73.057
473.2000	72.5913
473.1000	72.023
473.0000	71.6443
472.9000	71.2056
472.8000	70.7389
472.7000	70.3367
472.6000	69.8886
472.5000	69.5662
472.4000	69.3005
472.3000	68.9338
472.2000	68.8298
472.1000	68.6803
472.0000	68.5644
471.9000	68.389
471.8000	68.2229
471.7000	68.282
471.6000	68.3082
471.5000	68.2536
471.4000	68.2356
471.3000	68.5147
471.2000	68.815
471.1000	68.9432
471.0000	69.3049
470.9000	69.5655
470.8000	69.9685
470.7000	70.3496
470.6000	70.749
470.5000	71.0785
470.4000	71.3769
470.3000	71.8983
470.2000	72.4677
470.1000	72.8556
470.0000	73.4069
469.9000	73.8795
469.8000	74.5498
469.7000	75.0273
469.6000	75.5753
469.5000	76.1312
469.4000	76.6635
469.3000	77.1968
469.2000	77.6611
469.1000	78.0365
469.0000	78.3864
468.9000	78.6563
468.8000	78.9687
468.7000	79.1866
468.6000	79.3251
468.5000	79.482
468.4000	79.4638
468.3000	79.3362
468.2000	79.3122
468.1000	79.2004
468.0000	78.943
467.9000	78.7514
467.8000	78.4302
467.7000	78.2823
467.6000	77.8252
467.5000	77.3174
467.4000	77.0496
467.3000	76.6733
467.2000	76.2049
467.1000	75.7373
467.0000	75.2523
466.9000	74.7795
466.8000	74.2164
466.7000	73.7113
466.6000	73.1801
466.5000	72.7538
466.4000	72.0874
466.3000	71.7105
466.2000	71.3579
466.1000	70.8762
466.0000	70.5417
465.9000	70.2671
465.8000	70.0122
465.7000	69.779
465.6000	69.5158
465.5000	69.4764
465.4000	69.3832
465.3000	69.3047
465.2000	69.3702
465.1000	69.3731
465.0000	69.4778
464.9000	69.3846
464.8000	69.5607
464.7000	69.809
464.6000	69.9874
464.5000	70.3352
464.4000	70.6481
464.3000	71.0986
464.2000	71.5681
464.1000	71.9971
464.0000	72.4499
463.9000	72.953
463.8000	73.4265
463.7000	74.0219
463.6000	74.5798
463.5000	75.0527
463.4000	75.3728
463.3000	75.9296
463.2000	76.312
463.1000	76.6078
463.0000	77.0487
462.9000	77.4151
462.8000	77.8306
462.7000	78.2793
462.6000	78.624
462.5000	78.9493
462.4000	79.3296
462.3000	79.5324
462.2000	79.6737
462.1000	79.8368
462.0000	79.7901
461.9000	79.8259
461.8000	79.766
461.7000	79.6956
461.6000	79.6018
461.5000	79.4477
461.4000	79.1436
461.3000	78.8063
461.2000	78.5019
461.1000	78.0348
461.0000	77.4173
460.9000	76.8662
460.8000	76.3408
460.7000	75.8316
460.6000	75.2255
460.5000	74.7221
460.4000	74.3069
460.3000	73.8843
460.2000	73.4698
460.1000	73.005
460.0000	72.5293
459.9000	72.1675
459.8000	71.8028
459.7000	71.5409
459.6000	71.262
459.5000	71.0173
459.4000	70.7333
459.3000	70.6096
459.2000	70.4541
459.1000	70.266
459.0000	70.1692
458.9000	70.1426
458.8000	70.2435
458.7000	70.3064
458.6000	70.4187
458.5000	70.5103
458.4000	70.8299
458.3000	71.1536
458.2000	71.5964
458.1000	71.8448
458.0000	72.2164
457.9000	72.7522
457.8000	73.2251
457.7000	73.6848
457.6000	74.1199
457.5000	74.6617
457.4000	75.333
457.3000	75.8473
457.2000	76.481
457.1000	76.9448
457.0000	77.5066
456.9000	77.9635
456.8000	78.389
456.7000	78.7087
456.6000	79.0606
456.5000	79.2587
456.4000	79.5993
456.3000	79.8085
456.2000	80.0859
456.1000	80.251
456.0000	80.3626
455.9000	80.3089
455.8000	80.1573
455.7000	80.082
455.6000	79.9435
455.5000	79.7176
455.4000	79.3633
455.3000	79.089
455.2000	78.9047
455.1000	78.4775
455.0000	78.0141
454.9000	77.5664
454.8000	77.1372
454.7000	76.4848
454.6000	75.9993
454.5000	75.6506
454.4000	75.1862
454.3000	74.6646
454.2000	74.0317
454.1000	73.5843
454.0000	73.1203
453.9000	72.5339
453.8000	72.2006
453.7000	71.9145
453.6000	71.6349
453.5000	71.5408
453.4000	71.3425
453.3000	71.2738
453.2000	71.0246
453.1000	70.8723
453.0000	70.8716
452.9000	70.7901
452.8000	70.7414
452.7000	70.7607
452.6000	70.9421
452.5000	71.2804
452.4000	71.6215
452.3000	71.9614
452.2000	72.495
452.1000	73.1284
452.0000	73.6556
451.9000	74.0956
451.8000	74.5861
451.7000	75.0611
451.6000	75.6059
451.5000	76.0049
451.4000	76.4372
451.3000	76.9067
451.2000	77.4151
451.1000	78.0282
451.0000	78.4686
450.9000	78.978
450.8000	79.3221
450.7000	79.6154
450.6000	79.8666
450.5000	79.9856
450.4000	80.007
450.3000	80.0221
450.2000	80.0775
450.1000	80.19
450.0000	80.1541
449.9000	80.2271
449.8000	80.1321
449.7000	79.9325
449.6000	79.7219
449.5000	79.3993
449.4000	78.9229
449.3000	78.2346
449.2000	77.7996
449.1000	77.2147
449.0000	76.7207
448.9000	76.2078
448.8000	75.5597
448.7000	75.1335
448.6000	74.7226
448.5000	74.1707
448.4000	73.8044
448.3000	73.3826
448.2000	72.8595
448.1000	72.5152
448.0000	72.1793
447.9000	71.8904
447.8000	71.5972
447.7000	71.2989
447.6000	71.2068
447.5000	71.0411
447.4000	70.9262
447.3000	70.833
447.2000	71.0029
447.1000	71.0816
447.0000	71.1658
446.9000	71.3958
446.8000	71.6668
446.7000	72.0372
446.6000	72.2212
446.5000	72.5952
446.4000	73.0121
446.3000	73.4912
446.2000	73.9953
446.1000	74.468
446.0000	74.9936
445.9000	75.5661
445.8000	76.0063
445.7000	76.501
445.6000	77.0115
445.5000	77.4706
445.4000	78.0579
445.3000	78.4213
445.2000	78.7621
445.1000	79.1728
445.0000	79.3817
444.9000	79.6233
444.8000	79.8171
444.7000	79.9144
444.6000	79.9898
444.5000	79.8974
444.4000	79.7379
444.3000	79.8621
444.2000	79.6868
444.1000	79.3569
444.0000	79.0934
443.9000	78.7455
443.8000	78.3276
443.7000	77.7903
443.6000	77.4539
443.5000	76.8155
443.4000	76.2748
443.3000	75.7935
443.2000	75.3113
443.1000	74.9009
443.0000	74.3515
442.9000	73.8811
442.8000	73.3306
442.7000	72.802
442.6000	72.29
442.5000	71.8433
442.4000	71.4031
442.3000	71.1574
442.2000	70.8094
442.1000	70.7361
442.0000	70.5305
441.9000	70.5993
441.8000	70.5199
441.7000	70.5891
441.6000	70.6617
441.5000	70.8523
441.4000	71.0434
441.3000	71.1533
441.2000	71.4743
441.1000	71.6822
441.0000	72.1721
440.9000	72.684
440.8000	73.1855
440.7000	73.8341
440.6000	74.349
440.5000	75.0247
440.4000	75.6036
440.3000	76.0892
440.2000	76.5341
440.1000	76.8887
440.0000	77.3089
439.9000	77.8507
439.8000	78.2124
439.7000	78.4079
439.6000	78.7761
439.5000	79.0855
439.4000	79.2512
439.3000	79.4412
439.2000	79.4962
439.1000	79.4477
439.0000	79.4521
438.9000	79.2498
438.8000	78.8172
438.7000	78.4512
438.6000	77.9962
438.5000	77.6869
438.4000	77.2236
438.3000	76.8584
438.2000	76.3637
438.1000	75.9574
438.0000	75.5629
437.9000	75.088
437.8000	74.5491
437.7000	74.1448
437.6000	73.446
437.5000	72.8723
437.4000	72.29
437.3000	71.7799
437.2000	71.4921
437.1000	70.8103
437.0000	70.4692
436.9000	70.1472
436.8000	70.0573
436.7000	69.9564
436.6000	69.8067
436.5000	69.6973
436.4000	69.8914
436.3000	70.1182
436.2000	70.277
436.1000	70.5142
436.0000	70.6691
435.9000	71.0786
435.8000	71.3066
435.7000	71.7105
435.6000	72.0027
435.5000	72.3573
435.4000	73.0881
435.3000	73.6898
435.2000	74.2745
435.1000	74.8208
435.0000	75.3123
434.9000	75.8254
434.8000	76.2669
434.7000	76.6033
434.6000	77.2032
434.5000	77.5421
434.4000	77.9773
434.3000	78.2213
434.2000	78.4954
434.1000	78.5766
434.0000	78.5176
433.9000	78.6395
433.8000	78.481
433.7000	78.216
433.6000	78.0218
433.5000	77.7031
433.4000	77.4239
433.3000	77.049
433.2000	76.5022
433.1000	75.9394
433.0000	75.3242
432.9000	74.7837
432.8000	74.0812
432.7000	73.446
432.6000	72.8219
432.5000	72.1902
432.4000	71.7237
432.3000	71.1823
432.2000	70.6962
432.1000	70.3084
432.0000	69.9316
431.9000	69.6165
431.8000	69.4299
431.7000	69.2134
431.6000	69.0922
431.5000	69.0247
431.4000	69.064
431.3000	68.9824
431.2000	69.0443
431.1000	69.2057
431.0000	69.3128
430.9000	69.5481
430.8000	69.9423
430.7000	70.3236
430.6000	70.7372
430.5000	71.2322
430.4000	71.6995
430.3000	72.1325
430.2000	72.5694
430.1000	73.1705
430.0000	73.6884
429.9000	74.1559
429.8000	74.8828
429.7000	75.538
429.6000	76.0323
429.5000	76.3244
429.4000	76.6014
429.3000	76.9794
429.2000	77.072
429.1000	76.9998
429.0000	76.9798
428.9000	77.0773
428.8000	76.9805
428.7000	76.9633
428.6000	76.6453
428.5000	76.423
428.4000	76.0022
428.3000	75.7095
428.2000	75.1539
428.1000	74.6682
428.0000	74.0972
427.9000	73.6022
427.8000	72.9407
427.7000	72.3438
427.6000	71.8389
427.5000	71.235
427.4000	70.6208
427.3000	69.8901
427.2000	69.292
427.1000	68.8612
427.0000	68.3525
426.9000	67.7434
426.8000	67.5832
426.7000	67.3083
426.6000	67.1743
426.5000	67.0079
426.4000	67.0725
426.3000	67.1767
426.2000	67.249
426.1000	67.4486
426.0000	67.7785
425.9000	68.2486
425.8000	68.6843
425.7000	69.1181
425.6000	69.5991
425.5000	70.1818
425.4000	70.653
425.3000	71.3218
425.2000	71.8509
425.1000	72.3753
425.0000	72.9586
424.9000	73.5492
424.8000	74.1303
424.7000	74.5659
424.6000	74.8344
424.5000	75.1941
424.4000	75.4971
424.3000	75.7074
424.2000	75.9275
424.1000	76.0019
424.0000	75.8661
423.9000	75.8368
423.8000	75.6435
423.7000	75.2195
423.6000	74.8542
423.5000	74.2903
423.4000	73.8223
423.3000	73.4295
423.2000	72.8448
423.1000	72.3185
423.0000	71.6304
422.9000	71.1362
422.8000	70.41
422.7000	69.8107
422.6000	69.1538
422.5000	68.3108
422.4000	67.6779
422.3000	67.2212
422.2000	66.8094
422.1000	66.2437
422.0000	65.8646
421.9000	65.5974
421.8000	65.4897
421.7000	65.329
421.6000	65.2929
421.5000	65.4549
421.4000	65.5609
421.3000	65.8258
421.2000	66.0111
421.1000	66.3534
421.0000	66.8669
420.9000	67.2998
420.8000	67.9058
420.7000	68.5845
420.6000	69.085
420.5000	69.6743
420.4000	70.1856
420.3000	70.9034
420.2000	71.4537
420.1000	71.8708
420.0000	72.6065
419.9000	73.0308
419.8000	73.3499
419.7000	73.8831
419.6000	74.1828
419.5000	74.3334
419.4000	74.3351
419.3000	74.5114
419.2000	74.6555
419.1000	74.26
419.0000	74.2268
418.9000	73.6993
418.8000	73.1622
418.7000	72.6953
418.6000	72.0426
418.5000	71.2385
418.4000	70.5204
418.3000	69.7161
418.2000	69.2486
418.1000	68.5206
418.0000	67.8506
417.9000	67.264
417.8000	66.6476
417.7000	66.0285
417.6000	65.3927
417.5000	64.7242
417.4000	64.2757
417.3000	64.0546
417.2000	63.7449
417.1000	63.5526
417.0000	63.4004
416.9000	63.6335
416.8000	63.8934
416.7000	64.1307
416.6000	64.4629
416.5000	64.6998
416.4000	65.1702
416.3000	65.7689
416.2000	66.1868
416.1000	66.7567
416.0000	67.2991
415.9000	67.9634
415.8000	68.6585
415.7000	69.4603
415.6000	70.1318
415.5000	70.6195
415.4000	71.175
415.3000	71.6844
415.2000	72.0585
415.1000	72.4498
415.0000	72.625
414.9000	72.7371
414.8000	72.8629
414.7000	72.7069
414.6000	72.4139
414.5000	72.2591
414.4000	71.8908
414.3000	71.1786
414.2000	70.6262
414.1000	70.3176
414.0000	69.6228
413.9000	68.8252
413.8000	68.0751
413.7000	67.4216
413.6000	66.8517
413.5000	65.9974
413.4000	65.3207
413.3000	64.677
413.2000	64.0726
413.1000	63.4104
413.0000	62.803
412.9000	62.1725
412.8000	61.8847
412.7000	61.7016
412.6000	61.6424
412.5000	61.6322
412.4000	61.883
412.3000	62.294
412.2000	62.7254
412.1000	62.89
412.0000	63.3423
411.9000	63.9569
411.8000	64.7188
411.7000	65.2659
411.6000	66.039
411.5000	66.9617
411.4000	67.6756
411.3000	68.2404
411.2000	68.7293
411.1000	69.2901
411.0000	70.0513
410.9000	70.2601
410.8000	70.5373
410.7000	70.8568
410.6000	71.0735
410.5000	71.1692
410.4000	71.1063
410.3000	70.9638
410.2000	70.7904
410.1000	70.3464
410.0000	69.7649
409.9000	69.2301
409.8000	68.4492
409.7000	67.8215
409.6000	67.025
409.5000	66.3642
409.4000	65.5392
409.3000	65.0253
409.2000	64.2621
409.1000	63.445
409.0000	62.6658
408.9000	62.094
408.8000	61.6106
408.7000	60.9145
408.6000	60.5246
408.5000	60.2763
408.4000	60.1171
408.3000	60.1359
408.2000	60.3448
408.1000	60.456
408.0000	60.6597
407.9000	61.1958
407.8000	61.6331
407.7000	62.253
407.6000	62.8049
407.5000	63.432
407.4000	64.0623
407.3000	64.9218
407.2000	65.7128
407.1000	66.5153
407.0000	67.1626
406.9000	67.7205
406.8000	68.546
406.7000	69.125
406.6000	69.5283
406.5000	69.7848
406.4000	69.9794
406.3000	69.8985
406.2000	69.4702
406.1000	69.1452
406.0000	68.6572
405.9000	68.0346
405.8000	67.3083
405.7000	66.6056
405.6000	66.1671
405.5000	65.5418
405.4000	64.9429
405.3000	64.1824
405.2000	63.3315
405.1000	62.5427
405.0000	62.0406
404.9000	61.3074
404.8000	60.8015
404.7000	60.1219
404.6000	59.7265
404.5000	59.5401
404.4000	59.1586
404.3000	59.051
404.2000	59.1157
404.1000	59.1907
404.0000	59.5305
403.9000	59.9678
403.8000	60.4391
403.7000	60.9611
403.6000	61.547
403.5000	62.1912
403.4000	62.949
403.3000	63.7369
403.2000	64.3784
403.1000	65.1735
403.0000	65.7631
402.9000	66.1823
402.8000	66.5623
402.7000	66.9911
402.6000	67.3733
402.5000	67.4774
402.4000	67.6747
402.3000	67.6578
402.2000	67.7029
402.1000	67.3914
402.0000	66.8599
401.9000	66.339
401.8000	65.8812
401.7000	65.2609
401.6000	64.5257
401.5000	63.7949
401.4000	63.058
401.3000	62.3926
401.2000	61.6225
401.1000	60.8518
401.0000	60.0902
400.9000	59.531
400.8000	58.9963
400.7000	58.3772
400.6000	58.0443
400.5000	57.7411
400.4000	57.6369
400.3000	57.5449
400.2000	57.791
400.1000	57.9737
400.0000	58.325
399.9000	58.7951
399.8000	59.5225
399.7000	60.0697
399.6000	60.7909
399.5000	61.5536
399.4000	62.5743
399.3000	63.3711
399.2000	64.0169
399.1000	64.6967
399.0000	65.4156
398.9000	65.9565
398.8000	66.3857
398.7000	66.6278
398.6000	66.8548
398.5000	66.7765
398.4000	66.5243
398.3000	66.1985
398.2000	65.8172
398.1000	65.1044
398.0000	64.5518
397.9000	63.6658
397.8000	62.8966
397.7000	62.0741
397.6000	61.1705
397.5000	60.3585
397.4000	59.5433
397.3000	58.9464
397.2000	58.3885
397.1000	57.9279
397.0000	57.5086
396.9000	57.203
396.8000	57.0902
396.7000	56.9953
396.6000	57.029
396.5000	57.0676
396.4000	57.2722
396.3000	57.6877
396.2000	57.9795
396.1000	58.4456
396.0000	58.9554
395.9000	59.6835
395.8000	60.5302
395.7000	61.1383
395.6000	61.9651
395.5000	62.672
395.4000	63.3907
395.3000	63.9932
395.2000	64.3706
395.1000	64.4469
395.0000	64.8998
394.9000	65.0535
394.8000	64.9793
394.7000	64.6118
394.6000	64.2244
394.5000	63.8607
394.4000	63.1225
394.3000	62.3063
394.2000	61.6277
394.1000	60.8685
394.0000	60.1561
393.9000	59.4699
393.8000	58.6279
393.7000	58.1994
393.6000	57.5402
393.5000	57.32
393.4000	56.8688
393.3000	56.4556
393.2000	56.387
393.1000	56.3664
393.0000	56.4071
392.9000	56.4149
392.8000	56.6605
392.7000	57.1205
392.6000	57.7829
392.5000	58.3182
392.4000	58.9719
392.3000	59.8687
392.2000	60.6466
392.1000	61.2371
392.0000	61.7654
391.9000	62.2401
391.8000	62.7896
391.7000	63.0762
391.6000	63.4436
391.5000	63.4867
391.4000	63.6354
391.3000	63.5447
391.2000	63.1732
391.1000	62.8673
391.0000	62.2501
390.9000	61.6806
390.8000	61.0196
390.7000	60.2245
390.6000	59.6225
390.5000	58.5993
390.4000	57.8992
390.3000	57.1815
390.2000	56.4612
390.1000	55.7874
390.0000	55.3146
389.9000	55.0347
389.8000	54.7729
389.7000	54.7427
389.6000	55.0205
389.5000	55.1183
389.4000	55.7618
389.3000	56.08
389.2000	56.916
389.1000	57.5565
389.0000	58.2683
388.9000	59.026
388.8000	59.8015
388.7000	60.3386
388.6000	61.1262
388.5000	61.8817
388.4000	62.263
388.3000	62.4351
388.2000	62.6134
388.1000	62.4069
388.0000	62.2751
387.9000	61.6687
387.8000	61.0423
387.7000	60.4689
387.6000	59.8078
387.5000	59.0488
387.4000	58.2339
387.3000	57.4588
387.2000	56.8006
387.1000	56.1525
387.0000	55.4731
386.9000	55.0739
386.8000	54.637
386.7000	54.3008
386.6000	54.1291
386.5000	54.1941
386.4000	54.2952
386.3000	54.3172
386.2000	54.6975
386.1000	55.1267
386.0000	55.7547
385.9000	56.5007
385.8000	57.2983
385.7000	58.0871
385.6000	59.0681
385.5000	59.7757
385.4000	60.2476
385.3000	60.754
385.2000	61.0639
385.1000	61.0569
385.0000	60.8143
384.9000	60.506
384.8000	60.4287
384.7000	59.8207
384.6000	59.1601
384.5000	58.5559
384.4000	57.8592
384.3000	56.9871
384.2000	56.1358
384.1000	55.3901
384.0000	54.838
383.9000	54.3459
383.8000	54.0639
383.7000	53.8346
383.6000	53.7172
383.5000	53.5881
383.4000	53.7347
383.3000	53.9902
383.2000	54.3123
383.1000	54.6875
383.0000	55.4044
382.9000	56.0618
382.8000	56.8732
382.7000	57.6061
382.6000	58.3736
382.5000	58.9588
382.4000	59.4784
382.3000	59.5871
382.2000	59.7625
382.1000	59.6846
382.0000	59.3989
381.9000	59.0582
381.8000	58.4697
381.7000	57.9305
381.6000	57.2506
381.5000	56.6188
381.4000	55.7623
381.3000	55.1729
381.2000	54.3122
381.1000	53.9119
381.0000	53.474
380.9000	53.0609
380.8000	52.8641
380.7000	52.586
380.6000	52.5655
380.5000	52.9026
380.4000	53.2378
380.3000	53.7521
380.2000	54.381
380.1000	55.1134
380.0000	56.0213
379.9000	56.6645
379.8000	57.1943
379.7000	57.7756
379.6000	58.0454
379.5000	58.2736
379.4000	58.2677
379.3000	58.2118
379.2000	58.0624
379.1000	57.4389
379.0000	56.8316
378.9000	56.1768
378.8000	55.456
378.7000	54.7143
378.6000	54.0988
378.5000	53.3686
378.4000	52.8868
378.3000	52.3934
378.2000	52.1195
378.1000	51.9264
378.0000	51.7407
377.9000	52.1524
377.8000	52.4571
377.7000	53.0066
377.6000	53.4544
377.5000	54.0839
377.4000	54.8126
377.3000	55.3198
377.2000	55.9916
377.1000	56.4502
377.0000	56.709
376.9000	56.8476
376.8000	56.7887
376.7000	56.5338
376.6000	56.0149
376.5000	55.383
376.4000	54.6608
376.3000	53.8255
376.2000	53.3279
376.1000	52.7643
376.0000	52.0343
375.9000	51.4728
375.8000	51.0003
375.7000	50.7408
375.6000	50.5616
375.5000	50.7276
375.4000	50.8147
375.3000	51.1559
375.2000	51.8109
375.1000	52.2111
375.0000	52.893
374.9000	53.1861
374.8000	53.5366
374.7000	53.9784
374.6000	53.8308
374.5000	53.8266
374.4000	53.4838
374.3000	52.967
374.2000	52.4553
374.1000	51.7539
374.0000	51.0583
373.9000	50.5522
373.8000	49.7997
373.7000	49.1741
373.6000	48.943
373.5000	48.6585
373.4000	48.7013
373.3000	48.7059
373.2000	49.0819
373.1000	49.1353
373.0000	49.7129
372.9000	49.8784
372.8000	50.1088
372.7000	50.4012
372.6000	50.4501
372.5000	50.6506
372.4000	50.3842
372.3000	49.8408
372.2000	49.2249
372.1000	48.4515
372.0000	47.6697
371.9000	46.9974
371.8000	46.061
371.7000	45.3748
371.6000	44.7571
371.5000	44.3684
371.4000	44.0303
371.3000	43.6109
371.2000	43.5339
371.1000	43.7687
371.0000	43.8839
370.9000	43.9332
370.8000	43.828
370.7000	43.8722
370.6000	43.511
370.5000	42.9781
370.4000	42.3919
370.3000	41.443
370.2000	40.6583
370.1000	39.7133
370.0000	38.268
369.9000	37.6261
369.8000	36.8196
369.7000	36.3495
369.6000	35.8403
369.5000	35.2621
369.4000	34.5918
369.3000	34.1896
369.2000	33.705
369.1000	33.0715
369.0000	32.1594
368.9000	31.433
368.8000	30.6715
368.7000	29.9111
368.6000	28.8104
368.5000	27.9502
368.4000	26.988
368.3000	26.0984
368.2000	25.2391
368.1000	24.3328
368.0000	23.4217
367.9000	22.4249
367.8000	21.3981
367.7000	20.4845
367.6000	19.4353
367.5000	18.383
367.4000	17.3079
367.3000	16.2991
367.2000	15.4301
367.1000	14.4414
367.0000	13.3569
366.9000	12.433
366.8000	11.5976
366.7000	10.7433
366.6000	9.80485
366.5000	8.93205
366.4000	8.19535
366.3000	7.41592
366.2000	6.70657
366.1000	6.02427
366.0000	5.34002
365.9000	4.71562
365.8000	4.12141
365.7000	3.57919
365.6000	3.08454
365.5000	2.65764
365.4000	2.2716
365.3000	1.89597
365.2000	1.63968
365.1000	1.34422
365.0000	1.10588
364.9000	0.904358
364.8000	0.714551
364.7000	0.571679
364.6000	0.445868
364.5000	0.333331
364.4000	0.297255
364.3000	0.224729
364.2000	0.181024
364.1000	0.159645
364.0000	0.129797
363.9000	0.128566
363.8000	0.0923406
363.7000	0.0742122
363.6000	0.0816831
363.5000	0.0832052
363.4000	0.0847965
363.3000	0.0901621
363.2000	0.0927103
363.1000	0.114252
363.0000	0.11965
362.9000	0.135805
362.8000	0.121318
362.7000	0.131733
362.6000	0.102719
362.5000	0.0834721
362.4000	0.0806098
362.3000	0.0498645
362.2000	0.0575112
362.1000	0.0609894
362.0000	0.0784206
361.9000	0.0905165
361.8000	0.0659037
361.7000	0.0722709
361.6000	0.0802578
361.5000	0.0838133
361.4000	0.0736791
361.3000	0.0700043
361.2000	0.0895909
361.1000	0.0949545
361.0000	0.0811902
360.9000	0.0638202
360.8000	0.0877345
360.7000	0.0731616
360.6000	0.06884
360.5000	0.081263
360.4000	0.0791761
360.3000	0.0868194
360.2000	0.0527034
360.1000	0.0573899
360.0000	0.0627157
359.9000	0.0676846
359.8000	0.0618554
359.7000	0.0717998
359.6000	0.0930376
359.5000	0.102806
359.4000	0.111553
359.3000	0.123139
359.2000	0.1286
359.1000	0.114066
359.0000	0.0902461
358.9000	0.0673772
358.8000	0.0676974
358.7000	0.0527587
358.6000	0.0443845
358.5000	0.0525776
358.4000	0.0841722
358.3000	0.108373
358.2000	0.098294
358.1000	0.102589
358.0000	0.106913
357.9000	0.10464
357.8000	0.0848732
357.7000	0.0506496
357.6000	0.0526938
357.5000	0.0670518
357.4000	0.077816
357.3000	0.0748399
357.2000	0.0723608
357.1000	0.0890212
357.0000	0.0851425
356.9000	0.0817589
356.8000	0.0781935
356.7000	0.0696005
356.6000	0.0610795
356.5000	0.0420937
356.4000	0.0450904
356.3000	0.0460165
356.2000	0.0462502
356.1000	0.041188
356.0000	0.0544643
355.9000	0.064939
355.8000	0.0799786
355.7000	0.0818894
355.6000	0.0805416
355.5000	0.0613797
355.4000	0.0732195
355.3000	0.0603965
355.2000	0.0619487
355.1000	0.0604042
355.0000	0.0486824
354.9000	0.0609898
354.8000	0.0655774
354.7000	0.0664102
354.6000	0.075298
354.5000	0.0853148
354.4000	0.08075
354.3000	0.0787264
354.2000	0.0800017
354.1000	0.0757175
354.0000	0.0760848
353.9000	0.090001
353.8000	0.0926507
353.7000	0.091061
353.6000	0.0829441
353.5000	0.0669872
353.4000	0.0624579
353.3000	0.0628866
353.2000	0.0513671
353.1000	0.0474712
353.0000	0.0621502
352.9000	0.087707
352.8000	0.0836635
352.7000	0.0677594
352.6000	0.0624129
352.5000	0.0726344
352.4000	0.0607747
352.3000	0.0564775
352.2000	0.0470846
352.1000	0.067008
352.0000	0.0735708
351.9000	0.0767645
351.8000	0.103627
351.7000	0.10022
351.6000	0.11833
351.5000	0.110353
351.4000	0.0944811
351.3000	0.0709046
351.2000	0.0783758
351.1000	0.073788
351.0000	0.0683103
350.9000	0.0751746
350.8000	0.088488
350.7000	0.0791007
350.6000	0.0713049
350.5000	0.0429698
350.4000	0.0537661
350.3000	0.0666746
350.2000	0.0586639
350.1000	0.0829827
350.0000	0.0864996
