TITLE	7.3
DATA TYPE	ULTRAVIOLET SPECTRUM
ORIGIN	JASCO
OWNER	
DATE	19/12/03
TIME	14:54:47
SPECTROMETER/DATA SYSTEM	
RESOLUTION	
DELTAX	-0.1
XUNITS	NANOMETERS
YUNITS	TRANSMITTANCE
FIRSTX	  850.0000
LASTX	  350.0000
NPOINTS	    5001
FIRSTY	    73.41049
MAXY	    83.36338
MINY	     0.03133
XYDATA
850.0000	73.4105
849.9000	72.7602
849.8000	71.7381
849.7000	71.8177
849.6000	72.2834
849.5000	72.1773
849.4000	71.3611
849.3000	70.8775
849.2000	71.4719
849.1000	72.4802
849.0000	72.303
848.9000	71.3848
848.8000	71.1948
848.7000	71.7469
848.6000	72.3341
848.5000	71.7685
848.4000	71.0981
848.3000	71.7644
848.2000	72.4446
848.1000	72.7787
848.0000	72.5033
847.9000	72.02
847.8000	72.56
847.7000	73.1465
847.6000	73.076
847.5000	72.7004
847.4000	72.2222
847.3000	72.5913
847.2000	73.1559
847.1000	72.6456
847.0000	72.3375
846.9000	72.5333
846.8000	72.9259
846.7000	73.3374
846.6000	72.9692
846.5000	72.675
846.4000	73.103
846.3000	73.9184
846.2000	74.1567
846.1000	74.1542
846.0000	74.1096
845.9000	74.5955
845.8000	75.6352
845.7000	75.7811
845.6000	75.2639
845.5000	75.1547
845.4000	75.8216
845.3000	75.6836
845.2000	75.2278
845.1000	73.8765
845.0000	73.8907
844.9000	74.6081
844.8000	74.7568
844.7000	74.5799
844.6000	74.6953
844.5000	75.3665
844.4000	76.1993
844.3000	75.691
844.2000	75.0705
844.1000	75.1151
844.0000	75.7234
843.9000	76.2759
843.8000	75.8051
843.7000	75.8657
843.6000	76.3856
843.5000	76.9393
843.4000	77.1105
843.3000	76.4224
843.2000	76.6758
843.1000	77.3898
843.0000	77.8317
842.9000	77.479
842.8000	77.0478
842.7000	77.6276
842.6000	77.9565
842.5000	78.0244
842.4000	77.5273
842.3000	77.4094
842.2000	77.7295
842.1000	78.3894
842.0000	77.9394
841.9000	77.2691
841.8000	77.494
841.7000	78.415
841.6000	78.9312
841.5000	78.527
841.4000	78.4218
841.3000	79.3799
841.2000	80.0417
841.1000	80.1031
841.0000	79.6309
840.9000	79.3177
840.8000	79.9906
840.7000	80.1358
840.6000	79.833
840.5000	79.4298
840.4000	79.5237
840.3000	80.2429
840.2000	80.7067
840.1000	80.5202
840.0000	80.1614
839.9000	80.9094
839.8000	81.844
839.7000	81.4057
839.6000	81.146
839.5000	81.2306
839.4000	81.9091
839.3000	82.1334
839.2000	81.6532
839.1000	81.4493
839.0000	81.8008
838.9000	82.0814
838.8000	82.0481
838.7000	81.2042
838.6000	80.8882
838.5000	81.412
838.4000	81.6103
838.3000	81.1356
838.2000	80.7153
838.1000	81.516
838.0000	82.2945
837.9000	82.2703
837.8000	81.8493
837.7000	82.0623
837.6000	82.5129
837.5000	82.7683
837.4000	82.7388
837.3000	82.5112
837.2000	82.8243
837.1000	83.3634
837.0000	82.9705
836.9000	82.3976
836.8000	81.9863
836.7000	82.5057
836.6000	82.4391
836.5000	82.038
836.4000	81.9667
836.3000	82.685
836.2000	83.3225
836.1000	83.2436
836.0000	82.9497
835.9000	82.7733
835.8000	83.066
835.7000	82.8623
835.6000	82.5988
835.5000	81.811
835.4000	82.0961
835.3000	82.1552
835.2000	82.1528
835.1000	81.7015
835.0000	81.2913
834.9000	82.0544
834.8000	82.3146
834.7000	81.6982
834.6000	81.6165
834.5000	81.8478
834.4000	82.5645
834.3000	82.3693
834.2000	81.2187
834.1000	81.3274
834.0000	81.5025
833.9000	81.6236
833.8000	80.783
833.7000	80.0481
833.6000	80.8042
833.5000	81.8234
833.4000	81.5113
833.3000	81.0705
833.2000	80.5838
833.1000	81.0296
833.0000	80.9174
832.9000	79.866
832.8000	79.6022
832.7000	79.934
832.6000	80.56
832.5000	80.6838
832.4000	79.8154
832.3000	79.9947
832.2000	80.2393
832.1000	80.4086
832.0000	79.5692
831.9000	79.0199
831.8000	79.4828
831.7000	79.6912
831.6000	79.3204
831.5000	78.4758
831.4000	77.9971
831.3000	78.5812
831.2000	78.861
831.1000	78.202
831.0000	77.3951
830.9000	77.8917
830.8000	78.5223
830.7000	78.6971
830.6000	78.0643
830.5000	77.5032
830.4000	77.9487
830.3000	78.5127
830.2000	77.8736
830.1000	77.2141
830.0000	77.0366
829.9000	77.8033
829.8000	78.0147
829.7000	76.9744
829.6000	76.3233
829.5000	76.7044
829.4000	77.1503
829.3000	76.7704
829.2000	76.0397
829.1000	75.8047
829.0000	76.4543
828.9000	76.5635
828.8000	75.7696
828.7000	75.4849
828.6000	75.8973
828.5000	76.1673
828.4000	75.7494
828.3000	75.064
828.2000	75.0943
828.1000	75.7878
828.0000	75.975
827.9000	75.3043
827.8000	74.7185
827.7000	74.4771
827.6000	74.8935
827.5000	74.3731
827.4000	73.4805
827.3000	73.2506
827.2000	73.9571
827.1000	74.1542
827.0000	73.8072
826.9000	73.1561
826.8000	73.5318
826.7000	73.9094
826.6000	73.7584
826.5000	73.2852
826.4000	73.4259
826.3000	74.0438
826.2000	74.1983
826.1000	73.3582
826.0000	73.0083
825.9000	73.4562
825.8000	74.2144
825.7000	73.6154
825.6000	73.017
825.5000	73.1958
825.4000	74.0022
825.3000	74.0363
825.2000	73.1838
825.1000	72.975
825.0000	73.3657
824.9000	73.927
824.8000	73.4297
824.7000	72.7546
824.6000	73.0326
824.5000	73.5962
824.4000	73.4336
824.3000	72.5823
824.2000	72.3025
824.1000	72.9522
824.0000	73.1321
823.9000	72.6681
823.8000	71.888
823.7000	72.5618
823.6000	73.0284
823.5000	72.9904
823.4000	72.325
823.3000	72.2282
823.2000	73.0509
823.1000	73.3224
823.0000	73.0042
822.9000	72.6238
822.8000	72.809
822.7000	73.1535
822.6000	73.233
822.5000	72.6116
822.4000	72.3478
822.3000	72.8644
822.2000	73.3074
822.1000	73.2638
822.0000	72.5643
821.9000	72.8875
821.8000	73.3801
821.7000	73.4596
821.6000	72.7522
821.5000	72.5941
821.4000	73.3284
821.3000	73.8443
821.2000	73.7057
821.1000	73.1873
821.0000	73.9286
820.9000	74.4494
820.8000	74.2503
820.7000	73.6766
820.6000	73.8743
820.5000	74.411
820.4000	74.4498
820.3000	73.7027
820.2000	73.6326
820.1000	74.1965
820.0000	74.4918
819.9000	74.5101
819.8000	74.3049
819.7000	74.9778
819.6000	75.6035
819.5000	75.8194
819.4000	75.748
819.3000	75.776
819.2000	76.3061
819.1000	76.6089
819.0000	76.0961
818.9000	75.5965
818.8000	76.1677
818.7000	76.7063
818.6000	76.2053
818.5000	75.8507
818.4000	76.3855
818.3000	76.9503
818.2000	77.1264
818.1000	76.6589
818.0000	77.1643
817.9000	77.8049
817.8000	77.9944
817.7000	77.7291
817.6000	77.3949
817.5000	78.0684
817.4000	77.9775
817.3000	77.7705
817.2000	77.7267
817.1000	78.1034
817.0000	78.9075
816.9000	78.8374
816.8000	78.943
816.7000	79.3015
816.6000	79.6575
816.5000	79.8619
816.4000	79.1893
816.3000	79.2261
816.2000	79.8445
816.1000	79.9799
816.0000	79.6521
815.9000	79.4983
815.8000	80.0014
815.7000	80.4891
815.6000	80.278
815.5000	79.9276
815.4000	79.9718
815.3000	80.5265
815.2000	80.6895
815.1000	80.3467
815.0000	80.135
814.9000	80.5422
814.8000	80.7519
814.7000	80.6221
814.6000	80.1964
814.5000	80.3858
814.4000	81.1092
814.3000	81.113
814.2000	80.8309
814.1000	81.128
814.0000	81.9155
813.9000	82.0341
813.8000	81.2041
813.7000	80.9758
813.6000	81.7627
813.5000	82.1025
813.4000	81.4914
813.3000	81.2359
813.2000	81.8333
813.1000	82.3943
813.0000	81.8339
812.9000	81.1279
812.8000	81.4581
812.7000	82.3336
812.6000	82.2816
812.5000	81.6747
812.4000	81.8125
812.3000	82.6092
812.2000	83.0947
812.1000	82.0125
812.0000	81.8882
811.9000	81.9881
811.8000	82.4321
811.7000	81.7775
811.6000	81.1113
811.5000	81.3358
811.4000	81.9464
811.3000	82.0166
811.2000	81.518
811.1000	81.3201
811.0000	82.012
810.9000	81.798
810.8000	81.2075
810.7000	80.6991
810.6000	81.1378
810.5000	81.5618
810.4000	81.0195
810.3000	80.5764
810.2000	80.8632
810.1000	81.3567
810.0000	81.1627
809.9000	80.5589
809.8000	80.452
809.7000	81.2243
809.6000	81.369
809.5000	80.8894
809.4000	80.8517
809.3000	81.3658
809.2000	81.5754
809.1000	80.9242
809.0000	80.3259
808.9000	80.712
808.8000	80.9511
808.7000	79.7908
808.6000	79.2223
808.5000	79.5538
808.4000	79.851
808.3000	79.0914
808.2000	78.444
808.1000	78.8106
808.0000	79.8224
807.9000	79.6092
807.8000	78.7731
807.7000	78.9548
807.6000	79.6612
807.5000	79.7826
807.4000	78.4839
807.3000	78.3186
807.2000	79.0003
807.1000	79.1721
807.0000	78.2247
806.9000	77.3664
806.8000	77.6068
806.7000	78.045
806.6000	77.2402
806.5000	76.6367
806.4000	76.8015
806.3000	77.6786
806.2000	77.5978
806.1000	76.7366
806.0000	77.1433
805.9000	77.7462
805.8000	77.6812
805.7000	77.0979
805.6000	76.9356
805.5000	77.6547
805.4000	77.6309
805.3000	76.6566
805.2000	76.1536
805.1000	76.3351
805.0000	76.5357
804.9000	75.8088
804.8000	75.503
804.7000	75.4698
804.6000	76.1606
804.5000	75.9776
804.4000	74.9914
804.3000	75.3389
804.2000	75.5924
804.1000	75.4691
804.0000	74.6637
803.9000	74.4926
803.8000	75.1421
803.7000	75.0852
803.6000	74.4945
803.5000	74.0021
803.4000	74.4743
803.3000	74.7169
803.2000	74.4725
803.1000	73.8621
803.0000	74.1071
802.9000	74.7198
802.8000	74.0992
802.7000	73.6759
802.6000	73.8822
802.5000	74.2963
802.4000	74.0896
802.3000	73.5745
802.2000	73.6974
802.1000	74.2837
802.0000	73.9357
801.9000	73.1421
801.8000	73.2734
801.7000	73.8143
801.6000	73.633
801.5000	72.9544
801.4000	72.7446
801.3000	73.5311
801.2000	73.9726
801.1000	73.2481
801.0000	72.9485
800.9000	73.5852
800.8000	73.931
800.7000	73.2164
800.6000	72.5231
800.5000	73.0054
800.4000	73.6106
800.3000	73.4043
800.2000	72.8915
800.1000	73.3083
800.0000	73.7224
799.9000	73.4335
799.8000	73.0226
799.7000	72.9239
799.6000	73.5764
799.5000	73.4408
799.4000	73.1596
799.3000	73.4585
799.2000	74.0067
799.1000	74.0491
799.0000	73.3858
798.9000	73.4579
798.8000	74.2458
798.7000	74.2567
798.6000	73.7412
798.5000	73.778
798.4000	74.3713
798.3000	74.5033
798.2000	73.9564
798.1000	73.8559
798.0000	74.39
797.9000	74.4952
797.8000	74.1308
797.7000	74.1523
797.6000	74.5328
797.5000	75.0215
797.4000	74.6214
797.3000	74.4924
797.2000	74.861
797.1000	75.009
797.0000	74.7919
796.9000	74.918
796.8000	75.2717
796.7000	76.0434
796.6000	75.699
796.5000	75.2348
796.4000	75.6938
796.3000	75.9808
796.2000	75.5666
796.1000	75.5123
796.0000	75.8373
795.9000	76.5642
795.8000	76.6089
795.7000	76.1789
795.6000	76.3308
795.5000	76.6131
795.4000	76.2737
795.3000	76.2846
795.2000	76.5812
795.1000	77.0957
795.0000	77.2653
794.9000	77.1412
794.8000	77.5897
794.7000	78.2447
794.6000	78.2831
794.5000	77.8604
794.4000	77.851
794.3000	78.4633
794.2000	78.5712
794.1000	77.8915
794.0000	77.8765
793.9000	78.5802
793.8000	78.95
793.7000	78.67
793.6000	78.6901
793.5000	79.5136
793.4000	79.63
793.3000	79.6233
793.2000	79.4778
793.1000	79.9867
793.0000	79.928
792.9000	79.4558
792.8000	79.1528
792.7000	79.6895
792.6000	80.1622
792.5000	79.9889
792.4000	79.9843
792.3000	80.6583
792.2000	81.0479
792.1000	80.6035
792.0000	80.4494
791.9000	80.6102
791.8000	81.1219
791.7000	80.7412
791.6000	80.297
791.5000	80.9504
791.4000	81.1394
791.3000	80.6479
791.2000	80.2892
791.1000	80.7625
791.0000	81.4704
790.9000	81.162
790.8000	81.2373
790.7000	81.7811
790.6000	82.6043
790.5000	82.3582
790.4000	81.7223
790.3000	81.9184
790.2000	82.2798
790.1000	81.7974
790.0000	81.1876
789.9000	81.3331
789.8000	82.0247
789.7000	81.6886
789.6000	81.5579
789.5000	81.8794
789.4000	82.48
789.3000	81.8649
789.2000	81.3706
789.1000	81.8542
789.0000	81.9793
788.9000	81.5658
788.8000	81.1479
788.7000	81.4988
788.6000	81.8309
788.5000	81.6251
788.4000	80.779
788.3000	81.138
788.2000	81.6108
788.1000	80.9839
788.0000	80.2709
787.9000	80.6529
787.8000	81.3998
787.7000	81.1855
787.6000	80.6471
787.5000	80.8226
787.4000	81.2474
787.3000	80.9257
787.2000	80.158
787.1000	80.152
787.0000	80.6788
786.9000	80.4406
786.8000	79.6965
786.7000	79.9663
786.6000	80.4989
786.5000	79.9878
786.4000	79.1576
786.3000	79.4535
786.2000	80.218
786.1000	79.8606
786.0000	78.9524
785.9000	79.3631
785.8000	79.9195
785.7000	79.4927
785.6000	78.7188
785.5000	78.6485
785.4000	79.2685
785.3000	78.9316
785.2000	78.116
785.1000	78.1358
785.0000	78.8136
784.9000	78.8851
784.8000	78.1575
784.7000	78.1492
784.6000	78.6475
784.5000	78.3454
784.4000	77.5384
784.3000	77.3599
784.2000	77.7511
784.1000	77.6839
784.0000	76.9977
783.9000	77.3109
783.8000	77.8171
783.7000	77.7762
783.6000	77.0018
783.5000	76.7875
783.4000	77.2261
783.3000	76.9005
783.2000	76.1173
783.1000	75.9269
783.0000	76.276
782.9000	76.4462
782.8000	75.6644
782.7000	75.7848
782.6000	76.2278
782.5000	76.2052
782.4000	75.5044
782.3000	75.4677
782.2000	75.745
782.1000	75.5058
782.0000	74.8674
781.9000	74.7485
781.8000	75.4336
781.7000	75.4594
781.6000	74.9301
781.5000	74.6796
781.4000	75.2627
781.3000	74.8149
781.2000	73.9709
781.1000	73.8495
781.0000	74.5593
780.9000	74.4458
780.8000	73.9974
780.7000	73.9354
780.6000	74.5031
780.5000	74.3551
780.4000	73.5465
780.3000	73.361
780.2000	74.0366
780.1000	74.0155
780.0000	73.4398
779.9000	73.5777
779.8000	74.0281
779.7000	74.2113
779.6000	73.7755
779.5000	73.6391
779.4000	74.1924
779.3000	73.8339
779.2000	73.4966
779.1000	73.6906
779.0000	74.0634
778.9000	73.792
778.8000	73.315
778.7000	73.7567
778.6000	74.1011
778.5000	73.8371
778.4000	73.3631
778.3000	73.4767
778.2000	74.105
778.1000	73.7459
778.0000	73.395
777.9000	73.5356
777.8000	73.8859
777.7000	73.5844
777.6000	73.3884
777.5000	73.6765
777.4000	74.0216
777.3000	73.4732
777.2000	73.2691
777.1000	73.7983
777.0000	74.1718
776.9000	73.8369
776.8000	73.9011
776.7000	74.3596
776.6000	74.7037
776.5000	74.4177
776.4000	74.4075
776.3000	74.624
776.2000	74.766
776.1000	74.2926
776.0000	74.239
775.9000	74.703
775.8000	74.7277
775.7000	74.2905
775.6000	74.4371
775.5000	74.9856
775.4000	75.0781
775.3000	74.5981
775.2000	74.7168
775.1000	75.4627
775.0000	75.5021
774.9000	75.3848
774.8000	75.5052
774.7000	76.1609
774.6000	76.4285
774.5000	75.9685
774.4000	76.0757
774.3000	76.6414
774.2000	76.3721
774.1000	75.8147
774.0000	76.0781
773.9000	76.708
773.8000	76.6165
773.7000	76.1967
773.6000	76.3429
773.5000	76.9737
773.4000	76.768
773.3000	76.6833
773.2000	77.0647
773.1000	77.4379
773.0000	77.4398
772.9000	77.3672
772.8000	77.8627
772.7000	78.2053
772.6000	78.0305
772.5000	77.8638
772.4000	78.5197
772.3000	78.8585
772.2000	78.4746
772.1000	78.3803
772.0000	78.7488
771.9000	78.9281
771.8000	78.8964
771.7000	78.8946
771.6000	79.278
771.5000	79.7202
771.4000	79.3227
771.3000	79.2241
771.2000	79.4542
771.1000	79.5638
771.0000	79.2435
770.9000	79.1363
770.8000	79.8382
770.7000	80.3357
770.6000	79.9513
770.5000	80.1061
770.4000	80.4835
770.3000	80.7594
770.2000	80.3845
770.1000	80.2738
770.0000	80.9461
769.9000	80.9271
769.8000	80.7395
769.7000	80.8876
769.6000	81.5608
769.5000	81.3075
769.4000	80.7279
769.3000	80.9393
769.2000	81.3531
769.1000	80.9823
769.0000	80.8491
768.9000	81.3203
768.8000	81.8376
768.7000	81.5002
768.6000	81.3557
768.5000	81.8546
768.4000	82.0565
768.3000	81.4465
768.2000	81.2728
768.1000	81.7855
768.0000	81.8686
767.9000	81.1842
767.8000	81.2722
767.7000	81.7439
767.6000	81.6349
767.5000	81.0096
767.4000	80.9643
767.3000	81.5591
767.2000	81.0578
767.1000	80.3429
767.0000	80.6574
766.9000	81.1461
766.8000	80.8207
766.7000	80.5036
766.6000	80.8003
766.5000	81.1993
766.4000	80.6273
766.3000	80.466
766.2000	80.893
766.1000	80.8256
766.0000	80.0888
765.9000	79.8161
765.8000	80.4092
765.7000	80.3081
765.6000	79.6748
765.5000	79.6724
765.4000	80.1123
765.3000	80.0291
765.2000	79.3235
765.1000	79.5195
765.0000	79.8619
764.9000	79.3796
764.8000	78.9828
764.7000	79.2845
764.6000	79.4607
764.5000	78.8853
764.4000	78.277
764.3000	78.6887
764.2000	78.9369
764.1000	78.5652
764.0000	78.4178
763.9000	78.9009
763.8000	78.8921
763.7000	78.2188
763.6000	78.2637
763.5000	78.5101
763.4000	78.1372
763.3000	77.3706
763.2000	77.4432
763.1000	77.9621
763.0000	77.3953
762.9000	76.8289
762.8000	77.2874
762.7000	77.7049
762.6000	77.2034
762.5000	76.9881
762.4000	77.3664
762.3000	77.3693
762.2000	76.5189
762.1000	76.208
762.0000	76.732
761.9000	76.4901
761.8000	75.8664
761.7000	76.0106
761.6000	76.3025
761.5000	76.3322
761.4000	75.5696
761.3000	75.8251
761.2000	76.0669
761.1000	75.5979
761.0000	75.375
760.9000	75.5684
760.8000	75.9637
760.7000	75.605
760.6000	75.2339
760.5000	75.3397
760.4000	75.5206
760.3000	75.0666
760.2000	74.7721
760.1000	75.2458
760.0000	74.9609
759.9000	74.5415
759.8000	74.6415
759.7000	75.0066
759.6000	74.6172
759.5000	73.9756
759.4000	74.022
759.3000	74.1746
759.2000	73.8085
759.1000	73.6858
759.0000	74.1312
758.9000	74.2967
758.8000	73.9608
758.7000	74.2121
758.6000	74.6041
758.5000	74.2393
758.4000	73.8557
758.3000	74.1431
758.2000	74.3876
758.1000	73.9654
758.0000	73.7468
757.9000	74.2125
757.8000	74.5312
757.7000	73.8429
757.6000	73.9078
757.5000	74.4963
757.4000	74.5563
757.3000	74.0687
757.2000	74.1595
757.1000	74.5216
757.0000	74.3161
756.9000	73.9226
756.8000	74.0835
756.7000	74.1924
756.6000	73.8774
756.5000	73.6384
756.4000	74.1428
756.3000	74.2523
756.2000	74.0475
756.1000	74.1421
756.0000	74.5141
755.9000	74.7418
755.8000	74.3402
755.7000	74.6538
755.6000	74.8536
755.5000	74.6798
755.4000	74.4254
755.3000	74.7483
755.2000	74.9664
755.1000	74.6856
755.0000	74.8407
754.9000	75.1325
754.8000	75.3148
754.7000	75.0151
754.6000	75.3259
754.5000	75.7239
754.4000	75.5986
754.3000	75.4163
754.2000	75.7021
754.1000	76.0375
754.0000	75.6416
753.9000	75.4752
753.8000	75.9461
753.7000	76.2019
753.6000	75.977
753.5000	76.0812
753.4000	76.5808
753.3000	76.4385
753.2000	76.432
753.1000	76.9238
753.0000	77.0791
752.9000	77.0194
752.8000	77.1992
752.7000	77.5139
752.6000	77.6047
752.5000	77.3827
752.4000	77.7363
752.3000	78.2362
752.2000	78.1141
752.1000	78.1837
752.0000	78.5176
751.9000	78.8682
751.8000	78.5583
751.7000	78.5918
751.6000	79.01
751.5000	79.0789
751.4000	78.7404
751.3000	79.1289
751.2000	79.3974
751.1000	79.2408
751.0000	79.3423
750.9000	79.8236
750.8000	80.1751
750.7000	79.95
750.6000	80.0244
750.5000	80.5272
750.4000	80.2987
750.3000	79.9131
750.2000	80.2464
750.1000	80.4679
750.0000	80.3221
749.9000	80.2991
749.8000	80.642
749.7000	80.8453
749.6000	80.6305
749.5000	80.6726
749.4000	80.9228
749.3000	80.9363
749.2000	80.5327
749.1000	80.9178
749.0000	81.1245
748.9000	80.8309
748.8000	81.0328
748.7000	81.259
748.6000	81.398
748.5000	80.9724
748.4000	81.0741
748.3000	81.2503
748.2000	80.856
748.1000	80.7514
748.0000	81.0239
747.9000	81.0237
747.8000	80.6445
747.7000	80.7661
747.6000	81.1844
747.5000	81.176
747.4000	80.6367
747.3000	80.9531
747.2000	81.3079
747.1000	80.8212
747.0000	80.8314
746.9000	81.1884
746.8000	81.0374
746.7000	80.6442
746.6000	80.6496
746.5000	80.8239
746.4000	80.4574
746.3000	80.0328
746.2000	80.2173
746.1000	80.1821
746.0000	79.7659
745.9000	79.7361
745.8000	79.9477
745.7000	79.704
745.6000	79.1697
745.5000	79.5381
745.4000	79.7423
745.3000	79.141
745.2000	79.0022
745.1000	79.2535
745.0000	79.1497
744.9000	78.7799
744.8000	79.0596
744.7000	79.3663
744.6000	78.884
744.5000	78.5869
744.4000	78.9938
744.3000	78.7883
744.2000	78.1789
744.1000	78.0024
744.0000	78.2382
743.9000	78.0375
743.8000	77.7558
743.7000	77.9012
743.6000	78.0639
743.5000	77.675
743.4000	77.5471
743.3000	77.5976
743.2000	77.2291
743.1000	76.8917
743.0000	76.8378
742.9000	76.7556
742.8000	76.594
742.7000	76.2611
742.6000	76.6394
742.5000	76.5834
742.4000	76.0857
742.3000	76.2486
742.2000	76.2817
742.1000	75.924
742.0000	75.8662
741.9000	76.0279
741.8000	75.8076
741.7000	75.422
741.6000	75.5579
741.5000	75.8524
741.4000	75.4156
741.3000	75.0356
741.2000	75.4743
741.1000	75.4069
741.0000	75.0552
740.9000	75.2085
740.8000	75.4327
740.7000	75.054
740.6000	74.8363
740.5000	74.9182
740.4000	74.8965
740.3000	74.4145
740.2000	74.2798
740.1000	74.5634
740.0000	74.8673
739.9000	74.5211
739.8000	74.6618
739.7000	74.7211
739.6000	74.3255
739.5000	74.2216
739.4000	74.2994
739.3000	74.3611
739.2000	74.1469
739.1000	74.3016
739.0000	74.5978
738.9000	74.3603
738.8000	74.1888
738.7000	74.4237
738.6000	74.411
738.5000	74.0125
738.4000	74.2094
738.3000	74.3603
738.2000	74.2889
738.1000	74.2406
738.0000	74.5519
737.9000	74.6496
737.8000	74.4437
737.7000	74.7218
737.6000	75.0446
737.5000	74.7974
737.4000	74.7109
737.3000	74.9241
737.2000	74.9919
737.1000	74.5781
737.0000	74.6373
736.9000	74.7318
736.8000	74.6175
736.7000	74.3804
736.6000	74.5682
736.5000	74.7762
736.4000	74.6698
736.3000	74.9766
736.2000	75.1338
736.1000	75.0777
736.0000	75.1371
735.9000	75.4441
735.8000	75.6121
735.7000	75.2643
735.6000	75.2719
735.5000	75.5096
735.4000	75.5559
735.3000	75.4296
735.2000	75.6968
735.1000	75.9483
735.0000	75.8049
734.9000	76.0202
734.8000	76.2915
734.7000	76.1895
734.6000	76.0782
734.5000	76.4326
734.4000	76.4673
734.3000	76.4782
734.2000	76.5921
734.1000	76.9318
734.0000	77.1879
733.9000	77.2399
733.8000	77.3559
733.7000	77.5284
733.6000	77.49
733.5000	77.7107
733.4000	77.8502
733.3000	77.7449
733.2000	77.9735
733.1000	78.2101
733.0000	78.4561
732.9000	78.3843
732.8000	78.6236
732.7000	78.7804
732.6000	78.6416
732.5000	78.6716
732.4000	78.856
732.3000	78.8756
732.2000	78.8095
732.1000	79.1295
732.0000	79.5097
731.9000	79.5779
731.8000	79.7045
731.7000	80.0425
731.6000	80.1042
731.5000	79.9073
731.4000	80.0824
731.3000	80.169
731.2000	80.0839
731.1000	80.0021
731.0000	80.3151
730.9000	80.359
730.8000	80.2355
730.7000	80.477
730.6000	80.7132
730.5000	80.6514
730.4000	80.6026
730.3000	80.8563
730.2000	80.8991
730.1000	80.6768
730.0000	80.7464
729.9000	80.8487
729.8000	80.7188
729.7000	80.8222
729.6000	81.0772
729.5000	80.9707
729.4000	80.883
729.3000	81.285
729.2000	81.3044
729.1000	81.015
729.0000	81.0138
728.9000	81.182
728.8000	81.0574
728.7000	80.7672
728.6000	80.8822
728.5000	81.0378
728.4000	80.7746
728.3000	80.6547
728.2000	80.7936
728.1000	80.7019
728.0000	80.5088
727.9000	80.4994
727.8000	80.4514
727.7000	80.2219
727.6000	80.2706
727.5000	80.4342
727.4000	80.1117
727.3000	79.9703
727.2000	80.2537
727.1000	80.2047
727.0000	79.6232
726.9000	79.533
726.8000	79.6246
726.7000	79.4752
726.6000	79.2221
726.5000	79.3817
726.4000	79.392
726.3000	79.1479
726.2000	79.0652
726.1000	79.0998
726.0000	78.856
725.9000	78.6557
725.8000	78.711
725.7000	78.6707
725.6000	78.499
725.5000	78.4795
725.4000	78.4194
725.3000	78.0113
725.2000	77.7866
725.1000	77.5732
725.0000	77.3102
724.9000	77.0194
724.8000	77.174
724.7000	77.2443
724.6000	76.9781
724.5000	77.0228
724.4000	77.1422
724.3000	76.8811
724.2000	76.798
724.1000	76.717
724.0000	76.4907
723.9000	76.3035
723.8000	76.3688
723.7000	76.42
723.6000	75.9958
723.5000	75.9262
723.4000	76.0948
723.3000	75.8082
723.2000	75.4796
723.1000	75.4824
723.0000	75.3202
722.9000	75.0693
722.8000	75.1683
722.7000	75.2848
722.6000	75.0625
722.5000	75.022
722.4000	75.1379
722.3000	74.9807
722.2000	74.773
722.1000	74.7595
722.0000	74.772
721.9000	74.5848
721.8000	74.681
721.7000	74.8708
721.6000	74.7808
721.5000	74.7377
721.4000	74.8863
721.3000	74.8009
721.2000	74.4541
721.1000	74.5367
721.0000	74.5367
720.9000	74.2217
720.8000	74.2378
720.7000	74.2361
720.6000	74.18
720.5000	74.0012
720.4000	74.1562
720.3000	74.1907
720.2000	73.9773
720.1000	74.077
720.0000	73.9922
719.9000	73.9556
719.8000	73.9119
719.7000	74.056
719.6000	74.0508
719.5000	73.9614
719.4000	74.1061
719.3000	74.297
719.2000	74.2773
719.1000	74.3503
719.0000	74.4776
718.9000	74.5392
718.8000	74.4382
718.7000	74.6897
718.6000	74.5673
718.5000	74.5716
718.4000	74.7352
718.3000	74.7568
718.2000	74.613
718.1000	74.7038
718.0000	74.8875
717.9000	74.878
717.8000	74.8494
717.7000	75.16
717.6000	75.2716
717.5000	75.1323
717.4000	75.1911
717.3000	75.4187
717.2000	75.2646
717.1000	75.2194
717.0000	75.4548
716.9000	75.5383
716.8000	75.4084
716.7000	75.6901
716.6000	75.8589
716.5000	75.7833
716.4000	75.8297
716.3000	75.9926
716.2000	76.2126
716.1000	76.3633
716.0000	76.7464
715.9000	76.7818
715.8000	76.8487
715.7000	77.0093
715.6000	77.0957
715.5000	77.0164
715.4000	77.0911
715.3000	77.3236
715.2000	77.4459
715.1000	77.5786
715.0000	77.7419
714.9000	77.9122
714.8000	77.934
714.7000	78.1343
714.6000	78.3451
714.5000	78.4924
714.4000	78.4415
714.3000	78.6174
714.2000	78.7616
714.1000	78.9396
714.0000	78.9463
713.9000	78.9192
713.8000	79.0621
713.7000	79.0825
713.6000	79.1656
713.5000	79.1948
713.4000	79.5091
713.3000	79.5119
713.2000	79.4901
713.1000	79.6345
713.0000	79.9947
712.9000	80.0496
712.8000	80.1398
712.7000	80.3074
712.6000	80.3614
712.5000	80.5356
712.4000	80.7242
712.3000	80.5046
712.2000	80.5149
712.1000	80.7282
712.0000	80.7075
711.9000	80.7462
711.8000	80.7432
711.7000	80.8411
711.6000	80.7775
711.5000	80.7247
711.4000	80.6471
711.3000	80.545
711.2000	80.5455
711.1000	80.6889
711.0000	80.7108
710.9000	80.598
710.8000	80.7235
710.7000	80.7734
710.6000	80.7169
710.5000	80.7233
710.4000	80.7249
710.3000	80.7593
710.2000	80.6645
710.1000	80.6517
710.0000	80.4144
709.9000	80.2576
709.8000	80.3369
709.7000	80.0743
709.6000	80.0516
709.5000	79.9195
709.4000	79.7898
709.3000	79.6946
709.2000	79.6397
709.1000	79.6634
709.0000	79.4025
708.9000	79.3712
708.8000	79.2585
708.7000	79.1598
708.6000	78.8452
708.5000	78.7425
708.4000	78.6578
708.3000	78.5017
708.2000	78.4876
708.1000	78.4689
708.0000	78.3462
707.9000	78.2548
707.8000	78.2414
707.7000	78.0005
707.6000	77.7648
707.5000	77.7161
707.4000	77.553
707.3000	77.3718
707.2000	77.1787
707.1000	77.1243
707.0000	76.8925
706.9000	76.7664
706.8000	76.6135
706.7000	76.3743
706.6000	76.3718
706.5000	76.4588
706.4000	76.2601
706.3000	76.1812
706.2000	76.2077
706.1000	76.0518
706.0000	76.0367
705.9000	75.819
705.8000	75.6949
705.7000	75.5525
705.6000	75.3994
705.5000	75.3564
705.4000	75.074
705.3000	75.0155
705.2000	75.0593
705.1000	74.827
705.0000	74.7677
704.9000	74.6967
704.8000	74.6594
704.7000	74.5252
704.6000	74.3886
704.5000	74.2742
704.4000	74.1804
704.3000	74.1795
704.2000	74.0334
704.1000	73.9366
704.0000	74.0117
703.9000	73.9489
703.8000	73.9894
703.7000	73.9317
703.6000	73.9663
703.5000	73.9105
703.4000	73.9736
703.3000	74.0055
703.2000	73.9124
703.1000	73.9138
703.0000	73.9169
702.9000	73.6954
702.8000	73.774
702.7000	73.7727
702.6000	73.7717
702.5000	73.7736
702.4000	73.7664
702.3000	73.7914
702.2000	73.7669
702.1000	73.78
702.0000	73.6942
701.9000	73.7461
701.8000	73.8332
701.7000	73.8588
701.6000	73.8506
701.5000	74.0916
701.4000	74.0829
701.3000	74.094
701.2000	74.1855
701.1000	74.2187
701.0000	74.2632
700.9000	74.3637
700.8000	74.4816
700.7000	74.5345
700.6000	74.5766
700.5000	74.6676
700.4000	74.7093
700.3000	74.7482
700.2000	74.721
700.1000	74.7412
700.0000	74.8685
699.9000	75.1104
699.8000	75.1437
699.7000	75.2578
699.6000	75.6034
699.5000	75.6581
699.4000	75.7427
699.3000	76.0231
699.2000	76.1668
699.1000	76.169
699.0000	76.3689
698.9000	76.4624
698.8000	76.5285
698.7000	76.6321
698.6000	76.7353
698.5000	76.7599
698.4000	76.9143
698.3000	77.0171
698.2000	77.1235
698.1000	77.3776
698.0000	77.5078
697.9000	77.5143
697.8000	77.6249
697.7000	77.8406
697.6000	77.9162
697.5000	77.9821
697.4000	78.1096
697.3000	78.191
697.2000	78.2336
697.1000	78.3915
697.0000	78.5803
696.9000	78.6648
696.8000	78.8259
696.7000	78.9799
696.6000	79.1141
696.5000	79.2956
696.4000	79.3167
696.3000	79.329
696.2000	79.5492
696.1000	79.586
696.0000	79.5374
695.9000	79.5891
695.8000	79.7399
695.7000	79.8848
695.6000	79.9734
695.5000	80.0788
695.4000	80.0528
695.3000	80.1802
695.2000	80.3023
695.1000	80.3141
695.0000	80.3383
694.9000	80.5006
694.8000	80.5313
694.7000	80.5058
694.6000	80.5731
694.5000	80.5143
694.4000	80.5142
694.3000	80.5871
694.2000	80.5948
694.1000	80.5744
694.0000	80.6538
693.9000	80.6865
693.8000	80.6369
693.7000	80.5777
693.6000	80.601
693.5000	80.3708
693.4000	80.4216
693.3000	80.4577
693.2000	80.2885
693.1000	80.2215
693.0000	80.2818
692.9000	80.1523
692.8000	80.0247
692.7000	80.022
692.6000	79.8153
692.5000	79.6039
692.4000	79.6618
692.3000	79.3261
692.2000	79.1691
692.1000	79.1573
692.0000	78.9401
691.9000	78.81
691.8000	78.9224
691.7000	78.7328
691.6000	78.6366
691.5000	78.707
691.4000	78.4427
691.3000	78.1634
691.2000	78.1408
691.1000	77.9298
691.0000	77.5877
690.9000	77.6503
690.8000	77.3986
690.7000	77.1973
690.6000	77.3831
690.5000	77.1343
690.4000	76.8461
690.3000	76.8752
690.2000	76.8265
690.1000	76.5438
690.0000	76.4676
689.9000	76.1716
689.8000	76.0218
689.7000	76.0507
689.6000	75.9082
689.5000	75.5191
689.4000	75.5175
689.3000	75.354
689.2000	75.0746
689.1000	74.9855
689.0000	74.8194
688.9000	74.5521
688.8000	74.5514
688.7000	74.5199
688.6000	74.3753
688.5000	74.3671
688.4000	74.3231
688.3000	74.1281
688.2000	74.0652
688.1000	74.1149
688.0000	73.9651
687.9000	73.8989
687.8000	73.9373
687.7000	73.805
687.6000	73.7719
687.5000	73.7998
687.4000	73.6451
687.3000	73.6826
687.2000	73.8001
687.1000	73.7228
687.0000	73.6561
686.9000	73.6456
686.8000	73.5343
686.7000	73.3673
686.6000	73.3684
686.5000	73.2025
686.4000	73.1395
686.3000	73.267
686.2000	73.3003
686.1000	73.3233
686.0000	73.5456
685.9000	73.4833
685.8000	73.5069
685.7000	73.5304
685.6000	73.3714
685.5000	73.2969
685.4000	73.4418
685.3000	73.5402
685.2000	73.5108
685.1000	73.6721
685.0000	73.7638
684.9000	73.793
684.8000	73.9209
684.7000	73.9074
684.6000	73.8281
684.5000	73.9981
684.4000	74.1152
684.3000	74.0699
684.2000	74.2398
684.1000	74.4488
684.0000	74.4212
683.9000	74.5863
683.8000	74.6107
683.7000	74.5962
683.6000	74.7898
683.5000	75.0003
683.4000	74.9655
683.3000	75.1852
683.2000	75.4993
683.1000	75.5639
683.0000	75.7486
682.9000	75.9296
682.8000	75.9419
682.7000	76.1679
682.6000	76.2154
682.5000	76.1779
682.4000	76.3681
682.3000	76.5614
682.2000	76.6428
682.1000	76.7892
682.0000	77.0635
681.9000	77.0242
681.8000	77.1618
681.7000	77.4562
681.6000	77.5244
681.5000	77.7873
681.4000	77.9523
681.3000	78.0635
681.2000	78.2406
681.1000	78.4158
681.0000	78.2473
680.9000	78.2301
680.8000	78.4452
680.7000	78.4605
680.6000	78.5703
680.5000	78.7407
680.4000	78.732
680.3000	79.0352
680.2000	79.2998
680.1000	79.2815
680.0000	79.3239
679.9000	79.6692
679.8000	79.6592
679.7000	79.7983
679.6000	79.8623
679.5000	79.7209
679.4000	79.9411
679.3000	80.1166
679.2000	80.0707
679.1000	80.2567
679.0000	80.4914
678.9000	80.4421
678.8000	80.544
678.7000	80.6946
678.6000	80.5004
678.5000	80.7103
678.4000	80.7177
678.3000	80.6375
678.2000	80.7506
678.1000	80.8457
678.0000	80.5768
677.9000	80.7436
677.8000	80.7544
677.7000	80.4953
677.6000	80.5921
677.5000	80.6207
677.4000	80.448
677.3000	80.5894
677.2000	80.5202
677.1000	80.4252
677.0000	80.7181
676.9000	80.6324
676.8000	80.3712
676.7000	80.3356
676.6000	80.3031
676.5000	79.9697
676.4000	79.8987
676.3000	79.6928
676.2000	79.3792
676.1000	79.2838
676.0000	79.1598
675.9000	78.8697
675.8000	78.8567
675.7000	78.7014
675.6000	78.4357
675.5000	78.5446
675.4000	78.3838
675.3000	78.0137
675.2000	78.071
675.1000	77.9841
675.0000	77.6941
674.9000	77.6746
674.8000	77.2795
674.7000	77.1236
674.6000	77.1875
674.5000	76.8797
674.4000	76.7239
674.3000	76.8284
674.2000	76.6685
674.1000	76.4193
674.0000	76.3896
673.9000	76.1008
673.8000	75.8046
673.7000	75.7613
673.6000	75.4405
673.5000	75.2054
673.4000	75.2636
673.3000	74.784
673.2000	74.6249
673.1000	74.7725
673.0000	74.4257
672.9000	74.3826
672.8000	74.631
672.7000	74.3727
672.6000	74.3396
672.5000	74.3952
672.4000	74.1346
672.3000	74.0114
672.2000	73.9258
672.1000	73.4997
672.0000	73.5319
671.9000	73.5402
671.8000	73.3063
671.7000	73.3138
671.6000	73.2889
671.5000	73.1022
671.4000	73.2574
671.3000	73.21
671.2000	72.8694
671.1000	73.112
671.0000	73.1251
670.9000	72.8333
670.8000	73.0341
670.7000	72.923
670.6000	72.7302
670.5000	72.7791
670.4000	72.6796
670.3000	72.5599
670.2000	72.7022
670.1000	72.5765
670.0000	72.5962
669.9000	72.8776
669.8000	72.825
669.7000	72.8252
669.6000	73.0908
669.5000	73.1279
669.4000	73.1534
669.3000	73.3406
669.2000	73.2542
669.1000	73.3701
669.0000	73.5635
668.9000	73.3456
668.8000	73.4412
668.7000	73.6459
668.6000	73.5319
668.5000	73.6057
668.4000	73.7963
668.3000	73.6567
668.2000	73.939
668.1000	74.1106
668.0000	74.0486
667.9000	74.3658
667.8000	74.5005
667.7000	74.4087
667.6000	74.7059
667.5000	74.7435
667.4000	74.663
667.3000	75.0736
667.2000	75.1556
667.1000	75.1739
667.0000	75.5614
666.9000	75.7573
666.8000	75.8924
666.7000	76.1461
666.6000	76.0966
666.5000	76.2528
666.4000	76.5415
666.3000	76.4871
666.2000	76.6133
666.1000	76.945
666.0000	77.0705
665.9000	77.4055
665.8000	77.6238
665.7000	77.5904
665.6000	77.9199
665.5000	78.0267
665.4000	78.0045
665.3000	78.2937
665.2000	78.4261
665.1000	78.3879
665.0000	78.7166
664.9000	78.7243
664.8000	78.8686
664.7000	79.2781
664.6000	79.2646
664.5000	79.2517
664.4000	79.644
664.3000	79.684
664.2000	79.8933
664.1000	79.9452
664.0000	79.8652
663.9000	80.0382
663.8000	80.263
663.7000	80.0065
663.6000	80.2261
663.5000	80.2563
663.4000	80.1412
663.3000	80.5663
663.2000	80.5772
663.1000	80.4256
663.0000	80.7189
662.9000	80.7119
662.8000	80.6846
662.7000	80.9774
662.6000	80.7237
662.5000	80.6768
662.4000	80.8911
662.3000	80.7452
662.2000	80.8024
662.1000	80.7395
662.0000	80.4441
661.9000	80.6705
661.8000	80.6053
661.7000	80.1738
661.6000	80.4124
661.5000	80.1846
661.4000	80.04
661.3000	80.1044
661.2000	79.7122
661.1000	79.545
661.0000	79.5739
660.9000	79.0826
660.8000	79.1668
660.7000	79.2445
660.6000	78.8657
660.5000	79.0571
660.4000	79.0568
660.3000	78.7727
660.2000	78.828
660.1000	78.496
660.0000	78.1134
659.9000	78.2131
659.8000	77.8195
659.7000	77.4813
659.6000	77.5397
659.5000	77.1293
659.4000	77.0881
659.3000	77.046
659.2000	76.6226
659.1000	76.6821
659.0000	76.5335
658.9000	76.166
658.8000	76.2018
658.7000	75.934
658.6000	75.5315
658.5000	75.6168
658.4000	75.2178
658.3000	75.0166
658.2000	75.0685
658.1000	74.589
658.0000	74.6661
657.9000	74.6942
657.8000	74.4298
657.7000	74.5367
657.6000	74.3184
657.5000	73.9832
657.4000	74.0601
657.3000	73.8109
657.2000	73.3495
657.1000	73.4296
657.0000	73.1481
656.9000	73.0082
656.8000	73.2411
656.7000	72.9194
656.6000	72.8917
656.5000	73.0146
656.4000	72.6906
656.3000	72.8638
656.2000	72.9279
656.1000	72.5965
656.0000	72.7309
655.9000	72.6288
655.8000	72.3086
655.7000	72.5138
655.6000	72.2368
655.5000	72.1058
655.4000	72.3511
655.3000	72.1315
655.2000	72.3209
655.1000	72.5193
655.0000	72.3074
654.9000	72.5991
654.8000	72.6533
654.7000	72.5112
654.6000	72.763
654.5000	72.562
654.4000	72.6363
654.3000	72.8643
654.2000	72.7121
654.1000	72.7416
654.0000	72.9189
653.9000	72.8165
653.8000	73.0721
653.7000	73.1733
653.6000	73.2006
653.5000	73.4657
653.4000	73.4753
653.3000	73.5524
653.2000	73.7653
653.1000	73.6717
653.0000	73.8666
652.9000	74.1149
652.8000	74.007
652.7000	74.3558
652.6000	74.509
652.5000	74.5973
652.4000	75.0312
652.3000	74.9879
652.2000	75.2626
652.1000	75.5724
652.0000	75.5626
651.9000	75.8249
651.8000	76.0071
651.7000	75.9451
651.6000	76.3406
651.5000	76.3455
651.4000	76.5637
651.3000	76.9653
651.2000	76.8806
651.1000	77.1579
651.0000	77.489
650.9000	77.43
650.8000	77.8349
650.7000	77.8487
650.6000	77.881
650.5000	78.1976
650.4000	78.0855
650.3000	78.372
650.2000	78.5662
650.1000	78.5044
650.0000	78.9326
649.9000	79.1255
649.8000	79.2456
649.7000	79.6
649.6000	79.4916
649.5000	79.6342
649.4000	79.8193
649.3000	79.7214
649.2000	79.897
649.1000	79.9867
649.0000	79.7889
648.9000	80.1474
648.8000	80.2812
648.7000	80.2466
648.6000	80.596
648.5000	80.4343
648.4000	80.5214
648.3000	80.8643
648.2000	80.5316
648.1000	80.7487
648.0000	80.7817
647.9000	80.6216
647.8000	80.8243
647.7000	80.6405
647.6000	80.6897
647.5000	81.0524
647.4000	80.6708
647.3000	80.8006
647.2000	80.8555
647.1000	80.535
647.0000	80.6915
646.9000	80.2815
646.8000	80.1136
646.7000	80.2315
646.6000	79.9137
646.5000	79.9129
646.4000	79.7538
646.3000	79.4412
646.2000	79.5888
646.1000	79.3426
646.0000	79.0403
645.9000	79.1248
645.8000	78.6781
645.7000	78.5441
645.6000	78.5145
645.5000	78.0155
645.4000	78.152
645.3000	77.878
645.2000	77.5138
645.1000	77.543
645.0000	77.2057
644.9000	77.1009
644.8000	77.0368
644.7000	76.3796
644.6000	76.3601
644.5000	76.184
644.4000	75.7152
644.3000	75.7542
644.2000	75.3245
644.1000	75.2637
644.0000	75.359
643.9000	74.839
643.8000	74.9119
643.7000	74.7422
643.6000	74.3068
643.5000	74.3322
643.4000	74.0997
643.3000	73.9217
643.2000	74.0491
643.1000	73.6094
643.0000	73.6186
642.9000	73.5955
642.8000	73.1085
642.7000	73.1604
642.6000	72.8925
642.5000	72.5866
642.4000	72.6972
642.3000	72.2266
642.2000	72.4169
642.1000	72.3833
642.0000	71.9861
641.9000	72.1796
641.8000	71.8016
641.7000	71.7376
641.6000	71.8287
641.5000	71.3661
641.4000	71.5865
641.3000	71.5327
641.2000	71.4017
641.1000	71.6641
641.0000	71.4269
640.9000	71.4703
640.8000	71.6186
640.7000	71.3696
640.6000	71.646
640.5000	71.6097
640.4000	71.5821
640.3000	71.9721
640.2000	71.7314
640.1000	71.9473
640.0000	72.0478
639.9000	72.0063
639.8000	72.3106
639.7000	72.1867
639.6000	72.3909
639.5000	72.571
639.4000	72.4103
639.3000	72.7986
639.2000	72.8367
639.1000	72.9169
639.0000	73.1794
638.9000	73.1373
638.8000	73.398
638.7000	73.5595
638.6000	73.5014
638.5000	73.8928
638.4000	73.9582
638.3000	74.0596
638.2000	74.4375
638.1000	74.4885
638.0000	74.7738
637.9000	74.88
637.8000	74.9347
637.7000	75.3273
637.6000	75.382
637.5000	75.5933
637.4000	75.9406
637.3000	75.9888
637.2000	76.4113
637.1000	76.6685
637.0000	76.7672
636.9000	77.1944
636.8000	77.2224
636.7000	77.5021
636.6000	77.8052
636.5000	77.795
636.4000	78.3682
636.3000	78.3515
636.2000	78.541
636.1000	78.7606
636.0000	78.677
635.9000	79.0104
635.8000	79.0299
635.7000	79.1488
635.6000	79.4333
635.5000	79.4742
635.4000	79.6856
635.3000	80.0149
635.2000	79.9872
635.1000	80.2214
635.0000	80.1922
634.9000	80.3033
634.8000	80.6158
634.7000	80.3222
634.6000	80.5331
634.5000	80.6435
634.4000	80.6435
634.3000	80.8352
634.2000	80.7122
634.1000	80.8551
634.0000	80.8767
633.9000	80.6907
633.8000	80.882
633.7000	80.6897
633.6000	80.7086
633.5000	80.9284
633.4000	80.6986
633.3000	80.6972
633.2000	80.6637
633.1000	80.4019
633.0000	80.6399
632.9000	80.3327
632.8000	80.3406
632.7000	80.3785
632.6000	79.9947
632.5000	80.0578
632.4000	79.7689
632.3000	79.491
632.2000	79.4795
632.1000	79.0433
632.0000	79.0465
631.9000	78.7498
631.8000	78.4401
631.7000	78.5545
631.6000	78.1378
631.5000	78.0886
631.4000	77.8058
631.3000	77.5638
631.2000	77.6033
631.1000	77.1462
631.0000	76.9201
630.9000	76.7974
630.8000	76.2596
630.7000	76.3519
630.6000	75.9936
630.5000	75.7729
630.4000	75.8153
630.3000	75.3384
630.2000	75.2566
630.1000	75.086
630.0000	74.6473
629.9000	74.6262
629.8000	74.1873
629.7000	74.1262
629.6000	73.9804
629.5000	73.5404
629.4000	73.5732
629.3000	73.234
629.2000	73.0467
629.1000	73.0257
629.0000	72.6917
628.9000	72.7638
628.8000	72.4723
628.7000	72.2693
628.6000	72.3664
628.5000	71.9097
628.4000	71.9069
628.3000	71.8012
628.2000	71.5944
628.1000	71.6948
628.0000	71.342
627.9000	71.3748
627.8000	71.3409
627.7000	71.0821
627.6000	71.3113
627.5000	71.0488
627.4000	71.0717
627.3000	71.0796
627.2000	70.8377
627.1000	71.0089
627.0000	70.7993
626.9000	70.8391
626.8000	71.0228
626.7000	70.9491
626.6000	71.1894
626.5000	71.1791
626.4000	71.1783
626.3000	71.5025
626.2000	71.2872
626.1000	71.5342
626.0000	71.7068
625.9000	71.6462
625.8000	71.9999
625.7000	71.7767
625.6000	72.0618
625.5000	72.3342
625.4000	72.2745
625.3000	72.6165
625.2000	72.5859
625.1000	73.015
625.0000	73.3789
624.9000	73.3657
624.8000	73.7207
624.7000	73.8111
624.6000	74.1035
624.5000	74.3834
624.4000	74.3579
624.3000	74.7315
624.2000	74.8852
624.1000	75.1022
624.0000	75.368
623.9000	75.4118
623.8000	75.7389
623.7000	75.8781
623.6000	76.0973
623.5000	76.3192
623.4000	76.451
623.3000	76.8657
623.2000	76.9484
623.1000	77.1935
623.0000	77.4519
622.9000	77.5069
622.8000	77.8998
622.7000	77.9209
622.6000	78.1598
622.5000	78.547
622.4000	78.5779
622.3000	78.9919
622.2000	79.1243
622.1000	79.4549
622.0000	79.6238
621.9000	79.6327
621.8000	79.9485
621.7000	79.9533
621.6000	80.1391
621.5000	80.3252
621.4000	80.2799
621.3000	80.5266
621.2000	80.4832
621.1000	80.6184
621.0000	80.6878
620.9000	80.5227
620.8000	80.7892
620.7000	80.6335
620.6000	80.8898
620.5000	80.7913
620.4000	80.7545
620.3000	81.0534
620.2000	80.8749
620.1000	80.9086
620.0000	80.8784
619.9000	80.7669
619.8000	80.7931
619.7000	80.5714
619.6000	80.5115
619.5000	80.4629
619.4000	80.1974
619.3000	80.1507
619.2000	79.9321
619.1000	79.8944
619.0000	79.8163
618.9000	79.5949
618.8000	79.6463
618.7000	79.2522
618.6000	79.1047
618.5000	78.8895
618.4000	78.5836
618.3000	78.5207
618.2000	78.081
618.1000	78.0182
618.0000	77.7896
617.9000	77.3783
617.8000	77.4121
617.7000	76.9446
617.6000	76.6811
617.5000	76.4822
617.4000	76.1978
617.3000	76.2418
617.2000	75.7942
617.1000	75.6175
617.0000	75.5254
616.9000	75.2307
616.8000	75.1768
616.7000	74.5856
616.6000	74.42
616.5000	74.2176
616.4000	73.796
616.3000	73.6468
616.2000	73.1782
616.1000	73.104
616.0000	72.9172
615.9000	72.5399
615.8000	72.4925
615.7000	72.096
615.6000	72.0635
615.5000	71.8679
615.4000	71.5686
615.3000	71.6186
615.2000	71.3231
615.1000	71.3317
615.0000	71.1268
614.9000	71.0792
614.8000	71.0788
614.7000	70.6442
614.6000	70.6611
614.5000	70.4153
614.4000	70.3869
614.3000	70.3273
614.2000	70.1168
614.1000	70.3651
614.0000	70.3345
613.9000	70.4048
613.8000	70.4202
613.7000	70.3908
613.6000	70.5886
613.5000	70.3727
613.4000	70.5325
613.3000	70.5268
613.2000	70.6467
613.1000	70.7971
613.0000	70.8088
612.9000	71.073
612.8000	71.0752
612.7000	71.3177
612.6000	71.4466
612.5000	71.4105
612.4000	71.6658
612.3000	71.6746
612.2000	71.9461
612.1000	72.1079
612.0000	72.3059
611.9000	72.5534
611.8000	72.7192
611.7000	73.0247
611.6000	73.1288
611.5000	73.4305
611.4000	73.6678
611.3000	73.8803
611.2000	74.2587
611.1000	74.4446
611.0000	74.7853
610.9000	75.0095
610.8000	75.3172
610.7000	75.5871
610.6000	75.7677
610.5000	76.0304
610.4000	76.22
610.3000	76.5902
610.2000	76.8459
610.1000	77.0003
610.0000	77.3321
609.9000	77.5435
609.8000	77.9194
609.7000	78.0758
609.6000	78.4116
609.5000	78.692
609.4000	78.8141
609.3000	79.2161
609.2000	79.2541
609.1000	79.5106
609.0000	79.5182
608.9000	79.7932
608.8000	79.9322
608.7000	80.0567
608.6000	80.1932
608.5000	80.1238
608.4000	80.3687
608.3000	80.3784
608.2000	80.4283
608.1000	80.6035
608.0000	80.5917
607.9000	80.7918
607.8000	80.6449
607.7000	80.6744
607.6000	80.7695
607.5000	80.8138
607.4000	80.8934
607.3000	80.7859
607.2000	80.9766
607.1000	80.9529
607.0000	80.8522
606.9000	80.7714
606.8000	80.4439
606.7000	80.5001
606.6000	80.1742
606.5000	80.0592
606.4000	79.8008
606.3000	79.674
606.2000	79.509
606.1000	79.2618
606.0000	79.11
605.9000	78.8006
605.8000	78.7173
605.7000	78.5867
605.6000	78.349
605.5000	78.2566
605.4000	77.9011
605.3000	77.777
605.2000	77.3766
605.1000	77.1523
605.0000	76.9444
604.9000	76.6578
604.8000	76.3448
604.7000	75.8702
604.6000	75.7077
604.5000	75.4638
604.4000	75.1187
604.3000	74.7993
604.2000	74.3943
604.1000	74.3816
604.0000	73.9852
603.9000	73.7824
603.8000	73.4223
603.7000	73.2418
603.6000	73.1827
603.5000	72.7747
603.4000	72.7011
603.3000	72.3905
603.2000	72.2221
603.1000	71.9898
603.0000	71.7218
602.9000	71.6104
602.8000	71.2896
602.7000	71.2632
602.6000	71.0656
602.5000	70.9097
602.4000	70.7274
602.3000	70.4901
602.2000	70.4773
602.1000	70.1714
602.0000	70.1678
601.9000	69.9728
601.8000	70.0963
601.7000	69.9649
601.6000	69.8961
601.5000	70.0061
601.4000	69.8713
601.3000	70.0556
601.2000	70.0129
601.1000	70.09
601.0000	70.1266
600.9000	69.9936
600.8000	70.1671
600.7000	70.2512
600.6000	70.3588
600.5000	70.4025
600.4000	70.5593
600.3000	70.749
600.2000	70.8496
600.1000	71.0439
600.0000	70.9359
599.9000	71.1751
599.8000	71.2161
599.7000	71.5404
599.6000	71.7799
599.5000	71.9894
599.4000	72.357
599.3000	72.4451
599.2000	72.7426
599.1000	73.0018
599.0000	73.3238
598.9000	73.5419
598.8000	73.878
598.7000	74.1393
598.6000	74.4644
598.5000	74.7698
598.4000	74.9046
598.3000	75.2458
598.2000	75.4867
598.1000	75.9036
598.0000	76.2346
597.9000	76.4602
597.8000	76.8054
597.7000	77.039
597.6000	77.341
597.5000	77.5116
597.4000	77.7565
597.3000	78.0719
597.2000	78.3011
597.1000	78.4658
597.0000	78.7575
596.9000	79.0055
596.8000	79.2753
596.7000	79.4794
596.6000	79.562
596.5000	79.815
596.4000	79.9443
596.3000	80.1422
596.2000	80.1218
596.1000	80.3169
596.0000	80.5144
595.9000	80.7404
595.8000	80.8659
595.7000	80.8929
595.6000	81.007
595.5000	80.9602
595.4000	80.9286
595.3000	80.8505
595.2000	80.8052
595.1000	80.9049
595.0000	80.8351
594.9000	80.8941
594.8000	80.7033
594.7000	80.7414
594.6000	80.5484
594.5000	80.3318
594.4000	80.091
594.3000	79.941
594.2000	79.7354
594.1000	79.4444
594.0000	79.3391
593.9000	79.1115
593.8000	78.9081
593.7000	78.6374
593.6000	78.4663
593.5000	78.2329
593.4000	77.9031
593.3000	77.7204
593.2000	77.4456
593.1000	77.2842
593.0000	76.9617
592.9000	76.7384
592.8000	76.4581
592.7000	76.071
592.6000	75.7188
592.5000	75.3398
592.4000	75.0651
592.3000	74.6415
592.2000	74.2353
592.1000	73.9547
592.0000	73.7268
591.9000	73.4581
591.8000	73.2026
591.7000	72.9472
591.6000	72.6639
591.5000	72.5162
591.4000	72.2863
591.3000	72.1163
591.2000	71.7119
591.1000	71.5845
591.0000	71.3478
590.9000	71.1876
590.8000	70.9278
590.7000	70.7238
590.6000	70.4605
590.5000	70.3012
590.4000	70.1396
590.3000	70.0126
590.2000	69.8625
590.1000	69.6645
590.0000	69.5638
589.9000	69.6215
589.8000	69.5949
589.7000	69.5304
589.6000	69.4284
589.5000	69.5762
589.4000	69.5228
589.3000	69.5818
589.2000	69.439
589.1000	69.4509
589.0000	69.5115
588.9000	69.71
588.8000	69.8211
588.7000	69.8119
588.6000	70.0479
588.5000	70.1487
588.4000	70.3166
588.3000	70.4091
588.2000	70.543
588.1000	70.7679
588.0000	70.9366
587.9000	71.187
587.8000	71.3189
587.7000	71.5982
587.6000	71.6879
587.5000	71.8633
587.4000	72.1342
587.3000	72.3913
587.2000	72.6942
587.1000	72.9033
587.0000	73.1854
586.9000	73.471
586.8000	73.802
586.7000	74.0982
586.6000	74.493
586.5000	74.6834
586.4000	75.0666
586.3000	75.4813
586.2000	75.8527
586.1000	76.0427
586.0000	76.3851
585.9000	76.7347
585.8000	77.0262
585.7000	77.3287
585.6000	77.5388
585.5000	77.8274
585.4000	77.9998
585.3000	78.3148
585.2000	78.6193
585.1000	78.9058
585.0000	79.0982
584.9000	79.4073
584.8000	79.7017
584.7000	79.9587
584.6000	80.1604
584.5000	80.2434
584.4000	80.3828
584.3000	80.4784
584.2000	80.4911
584.1000	80.5303
584.0000	80.5938
583.9000	80.5806
583.8000	80.7269
583.7000	80.6613
583.6000	80.8334
583.5000	80.7445
583.4000	80.7785
583.3000	80.853
583.2000	80.7686
583.1000	80.7457
583.0000	80.5457
582.9000	80.4305
582.8000	80.319
582.7000	80.0217
582.6000	79.8101
582.5000	79.6149
582.4000	79.4055
582.3000	79.2342
582.2000	78.9232
582.1000	78.674
582.0000	78.4626
581.9000	78.1699
581.8000	78.0013
581.7000	77.6664
581.6000	77.3537
581.5000	77.0506
581.4000	76.8221
581.3000	76.4591
581.2000	76.1361
581.1000	75.7327
581.0000	75.4312
580.9000	75.1551
580.8000	74.7271
580.7000	74.4693
580.6000	74.113
580.5000	73.8519
580.4000	73.5236
580.3000	73.2759
580.2000	72.9993
580.1000	72.6597
580.0000	72.3689
579.9000	71.9991
579.8000	71.7372
579.7000	71.4169
579.6000	71.2042
579.5000	70.9572
579.4000	70.7797
579.3000	70.5289
579.2000	70.3882
579.1000	70.2268
579.0000	69.9928
578.9000	69.7462
578.8000	69.646
578.7000	69.4807
578.6000	69.429
578.5000	69.2809
578.4000	69.2292
578.3000	69.2689
578.2000	69.1877
578.1000	69.253
578.0000	69.0585
577.9000	69.0511
577.8000	69.0927
577.7000	69.0264
577.6000	69.1258
577.5000	69.2343
577.4000	69.359
577.3000	69.5342
577.2000	69.5945
577.1000	69.7521
577.0000	69.9311
576.9000	70.0394
576.8000	70.116
576.7000	70.3041
576.6000	70.57
576.5000	70.754
576.4000	70.9696
576.3000	71.1992
576.2000	71.4556
576.1000	71.7265
576.0000	71.9761
575.9000	72.2161
575.8000	72.5729
575.7000	72.9632
575.6000	73.2346
575.5000	73.5299
575.4000	73.8309
575.3000	74.1464
575.2000	74.4259
575.1000	74.6573
575.0000	74.9016
574.9000	75.2947
574.8000	75.5878
574.7000	75.9089
574.6000	76.2279
574.5000	76.5305
574.4000	76.8125
574.3000	77.1004
574.2000	77.4659
574.1000	77.7418
574.0000	77.9884
573.9000	78.3031
573.8000	78.4624
573.7000	78.7717
573.6000	79.1075
573.5000	79.3266
573.4000	79.5349
573.3000	79.7804
573.2000	80.1316
573.1000	80.331
573.0000	80.4603
572.9000	80.5312
572.8000	80.5489
572.7000	80.6216
572.6000	80.7947
572.5000	80.7852
572.4000	80.753
572.3000	80.7618
572.2000	80.8445
572.1000	80.7688
572.0000	80.6025
571.9000	80.4815
571.8000	80.4549
571.7000	80.3729
571.6000	80.1959
571.5000	80.0072
571.4000	79.8059
571.3000	79.5785
571.2000	79.3836
571.1000	79.1276
571.0000	78.7961
570.9000	78.5195
570.8000	78.2177
570.7000	77.9644
570.6000	77.612
570.5000	77.4247
570.4000	77.0795
570.3000	76.9416
570.2000	76.6972
570.1000	76.5087
570.0000	76.0932
569.9000	75.8695
569.8000	75.5422
569.7000	75.2051
569.6000	74.8255
569.5000	74.3451
569.4000	73.9604
569.3000	73.5848
569.2000	73.2659
569.1000	72.9454
569.0000	72.6673
568.9000	72.3396
568.8000	72.0515
568.7000	71.7028
568.6000	71.4794
568.5000	71.0975
568.4000	70.8054
568.3000	70.4625
568.2000	70.1821
568.1000	69.9534
568.0000	69.8238
567.9000	69.6689
567.8000	69.4224
567.7000	69.2798
567.6000	69.2968
567.5000	69.1582
567.4000	69.1398
567.3000	69.0092
567.2000	69.0114
567.1000	69.0543
567.0000	69.1253
566.9000	69.1006
566.8000	69.1146
566.7000	69.0315
566.6000	69.0813
566.5000	69.069
566.4000	69.0215
566.3000	69.1395
566.2000	69.2341
566.1000	69.3718
566.0000	69.5321
565.9000	69.7852
565.8000	70.0167
565.7000	70.1849
565.6000	70.3518
565.5000	70.5729
565.4000	70.7212
565.3000	70.9767
565.2000	71.1436
565.1000	71.4138
565.0000	71.7717
564.9000	72.1258
564.8000	72.5273
564.7000	72.9263
564.6000	73.353
564.5000	73.7958
564.4000	74.024
564.3000	74.4799
564.2000	74.7645
564.1000	74.9645
564.0000	75.2647
563.9000	75.5569
563.8000	76.0632
563.7000	76.4482
563.6000	76.6895
563.5000	77.1172
563.4000	77.4675
563.3000	77.8043
563.2000	78.094
563.1000	78.4428
563.0000	78.7978
562.9000	79.1332
562.8000	79.4212
562.7000	79.5932
562.6000	79.8297
562.5000	79.9673
562.4000	80.0184
562.3000	80.169
562.2000	80.2994
562.1000	80.5022
562.0000	80.53
561.9000	80.5617
561.8000	80.6575
561.7000	80.6699
561.6000	80.6788
561.5000	80.666
561.4000	80.567
561.3000	80.5047
561.2000	80.3135
561.1000	80.2292
561.0000	80.1985
560.9000	80.1072
560.8000	79.9561
560.7000	79.8275
560.6000	79.788
560.5000	79.5848
560.4000	79.2692
560.3000	78.9459
560.2000	78.7023
560.1000	78.3966
560.0000	78.1538
559.9000	77.8486
559.8000	77.5293
559.7000	77.0837
559.6000	76.7354
559.5000	76.392
559.4000	75.9775
559.3000	75.4083
559.2000	75.089
559.1000	74.8175
559.0000	74.5075
558.9000	74.1651
558.8000	73.8384
558.7000	73.569
558.6000	73.3224
558.5000	73.0006
558.4000	72.6485
558.3000	72.3202
558.2000	72.137
558.1000	71.7492
558.0000	71.4462
557.9000	71.1224
557.8000	70.8073
557.7000	70.4813
557.6000	70.2327
557.5000	69.8892
557.4000	69.7133
557.3000	69.4148
557.2000	69.3953
557.1000	69.1684
557.0000	69.1192
556.9000	68.9815
556.8000	68.9158
556.7000	68.9437
556.6000	69.0076
556.5000	68.894
556.4000	68.928
556.3000	68.8571
556.2000	68.8849
556.1000	68.8509
556.0000	68.8979
555.9000	68.9676
555.8000	69.077
555.7000	69.1778
555.6000	69.2882
555.5000	69.5509
555.4000	69.6465
555.3000	69.8904
555.2000	70.0438
555.1000	70.3819
555.0000	70.6675
554.9000	70.9491
554.8000	71.2329
554.7000	71.696
554.6000	72.0124
554.5000	72.3343
554.4000	72.5985
554.3000	73.1072
554.2000	73.4011
554.1000	73.7098
554.0000	74.0467
553.9000	74.5341
553.8000	74.8985
553.7000	75.1624
553.6000	75.4388
553.5000	75.8602
553.4000	76.1841
553.3000	76.5417
553.2000	76.8554
553.1000	77.3452
553.0000	77.6057
552.9000	77.9496
552.8000	78.1996
552.7000	78.5491
552.6000	78.7502
552.5000	78.982
552.4000	79.2125
552.3000	79.53
552.2000	79.7594
552.1000	80.0155
552.0000	80.1896
551.9000	80.3762
551.8000	80.4528
551.7000	80.4443
551.6000	80.573
551.5000	80.6028
551.4000	80.5672
551.3000	80.5608
551.2000	80.6104
551.1000	80.6164
551.0000	80.5235
550.9000	80.4264
550.8000	80.3388
550.7000	80.1351
550.6000	79.998
550.5000	79.645
550.4000	79.4317
550.3000	79.0826
550.2000	78.7814
550.1000	78.5427
550.0000	78.2161
549.9000	77.8744
549.8000	77.6073
549.7000	77.3213
549.6000	77.0537
549.5000	76.7371
549.4000	76.4251
549.3000	76.0873
549.2000	75.8183
549.1000	75.4484
549.0000	74.9963
548.9000	74.5666
548.8000	74.1747
548.7000	73.854
548.6000	73.3774
548.5000	72.9716
548.4000	72.6809
548.3000	72.4219
548.2000	72.0352
548.1000	71.7045
548.0000	71.3707
547.9000	71.1015
547.8000	70.7182
547.7000	70.4502
547.6000	70.1984
547.5000	69.9036
547.4000	69.6316
547.3000	69.4361
547.2000	69.2624
547.1000	69.1388
547.0000	69.0418
546.9000	68.9608
546.8000	68.9481
546.7000	68.7741
546.6000	68.7978
546.5000	68.6532
546.4000	68.7686
546.3000	68.7408
546.2000	68.8085
546.1000	68.8314
546.0000	68.9866
545.9000	69.0322
545.8000	69.1124
545.7000	69.119
545.6000	69.3619
545.5000	69.4932
545.4000	69.7126
545.3000	69.8516
545.2000	70.2224
545.1000	70.4526
545.0000	70.6716
544.9000	71.002
544.8000	71.4329
544.7000	71.6628
544.6000	71.9748
544.5000	72.2839
544.4000	72.6803
544.3000	73.0864
544.2000	73.3515
544.1000	73.9559
544.0000	74.3001
543.9000	74.7572
543.8000	75.125
543.7000	75.4801
543.6000	75.8029
543.5000	76.1579
543.4000	76.4581
543.3000	76.7806
543.2000	77.0556
543.1000	77.4533
543.0000	77.8527
542.9000	78.0756
542.8000	78.4549
542.7000	78.6697
542.6000	78.9791
542.5000	79.2462
542.4000	79.556
542.3000	79.7885
542.2000	79.9592
542.1000	80.2227
542.0000	80.4095
541.9000	80.4217
541.8000	80.5297
541.7000	80.5261
541.6000	80.5756
541.5000	80.4907
541.4000	80.4508
541.3000	80.4769
541.2000	80.3074
541.1000	80.2794
541.0000	80.1645
540.9000	80.0751
540.8000	79.8345
540.7000	79.5331
540.6000	79.3242
540.5000	79.0398
540.4000	78.7077
540.3000	78.3654
540.2000	78.0668
540.1000	77.7533
540.0000	77.5386
539.9000	77.0713
539.8000	76.7479
539.7000	76.34
539.6000	76.0197
539.5000	75.6587
539.4000	75.2406
539.3000	74.8401
539.2000	74.459
539.1000	74.032
539.0000	73.6272
538.9000	73.2699
538.8000	72.8554
538.7000	72.4967
538.6000	72.0402
538.5000	71.7679
538.4000	71.4006
538.3000	71.1854
538.2000	70.8858
538.1000	70.688
538.0000	70.3287
537.9000	70.0797
537.8000	69.7779
537.7000	69.5122
537.6000	69.2178
537.5000	68.9974
537.4000	68.912
537.3000	68.7432
537.2000	68.6771
537.1000	68.6202
537.0000	68.7325
536.9000	68.6693
536.8000	68.6775
536.7000	68.7255
536.6000	68.7861
536.5000	68.9203
536.4000	68.9547
536.3000	69.2101
536.2000	69.4056
536.1000	69.6369
536.0000	69.7572
535.9000	69.936
535.8000	70.1417
535.7000	70.3542
535.6000	70.4623
535.5000	70.6998
535.4000	70.8679
535.3000	71.2358
535.2000	71.5633
535.1000	71.7788
535.0000	72.0927
534.9000	72.5382
534.8000	72.9819
534.7000	73.3316
534.6000	73.722
534.5000	74.1866
534.4000	74.5105
534.3000	74.8191
534.2000	75.1894
534.1000	75.5521
534.0000	75.9426
533.9000	76.3848
533.8000	76.6923
533.7000	77.1117
533.6000	77.4676
533.5000	77.8611
533.4000	78.118
533.3000	78.3741
533.2000	78.7289
533.1000	78.9904
533.0000	79.2122
532.9000	79.3685
532.8000	79.5826
532.7000	79.6461
532.6000	79.8745
532.5000	80.0078
532.4000	80.2679
532.3000	80.2465
532.2000	80.3684
532.1000	80.4213
532.0000	80.4839
531.9000	80.281
531.8000	80.1362
531.7000	79.9086
531.6000	79.7296
531.5000	79.547
531.4000	79.2336
531.3000	78.9954
531.2000	78.8865
531.1000	78.5673
531.0000	78.5507
530.9000	78.1848
530.8000	77.8776
530.7000	77.5173
530.6000	77.1022
530.5000	76.8395
530.4000	76.4236
530.3000	76.066
530.2000	75.7774
530.1000	75.454
530.0000	74.9694
529.9000	74.6241
529.8000	74.2347
529.7000	73.8643
529.6000	73.4093
529.5000	73.0563
529.4000	72.6806
529.3000	72.3708
529.2000	72.1352
529.1000	71.7416
529.0000	71.3924
528.9000	71.0857
528.8000	70.8346
528.7000	70.4898
528.6000	70.1483
528.5000	69.8483
528.4000	69.6444
528.3000	69.4581
528.2000	69.1781
528.1000	69.1535
528.0000	69.0035
527.9000	68.9351
527.8000	68.849
527.7000	68.8106
527.6000	68.8448
527.5000	68.8269
527.4000	68.8814
527.3000	68.8825
527.2000	69.0005
527.1000	69.0923
527.0000	69.2502
526.9000	69.3046
526.8000	69.5408
526.7000	69.7277
526.6000	69.9061
526.5000	70.1531
526.4000	70.4997
526.3000	70.6991
526.2000	70.9602
526.1000	71.3084
526.0000	71.6342
525.9000	71.9813
525.8000	72.4109
525.7000	72.7086
525.6000	73.1529
525.5000	73.4582
525.4000	73.7654
525.3000	74.1558
525.2000	74.4326
525.1000	74.8865
525.0000	75.3768
524.9000	75.7471
524.8000	76.1903
524.7000	76.5787
524.6000	76.9026
524.5000	77.3463
524.4000	77.5083
524.3000	77.8012
524.2000	78.0472
524.1000	78.3589
524.0000	78.6213
523.9000	78.9046
523.8000	79.0803
523.7000	79.2301
523.6000	79.3838
523.5000	79.5354
523.4000	79.6329
523.3000	79.5874
523.2000	79.6543
523.1000	79.7139
523.0000	79.7212
522.9000	79.6794
522.8000	79.6531
522.7000	79.6021
522.6000	79.5305
522.5000	79.3664
522.4000	79.1291
522.3000	78.9851
522.2000	78.7856
522.1000	78.5422
522.0000	78.2365
521.9000	77.9136
521.8000	77.6261
521.7000	77.3618
521.6000	77.0027
521.5000	76.6565
521.4000	76.283
521.3000	75.9544
521.2000	75.5451
521.1000	75.1423
521.0000	74.7739
520.9000	74.4678
520.8000	74.0415
520.7000	73.7291
520.6000	73.2551
520.5000	72.8051
520.4000	72.4853
520.3000	72.0834
520.2000	71.8333
520.1000	71.3249
520.0000	71.1169
519.9000	70.7742
519.8000	70.4826
519.7000	70.3189
519.6000	70.1454
519.5000	70.0977
519.4000	69.8028
519.3000	69.7622
519.2000	69.5853
519.1000	69.5578
519.0000	69.3615
518.9000	69.2121
518.8000	69.076
518.7000	69.1193
518.6000	69.1165
518.5000	69.0766
518.4000	69.1584
518.3000	69.2169
518.2000	69.3594
518.1000	69.4394
518.0000	69.5488
517.9000	69.7589
517.8000	69.9949
517.7000	70.1648
517.6000	70.374
517.5000	70.6995
517.4000	71.0419
517.3000	71.3537
517.2000	71.7013
517.1000	72.117
517.0000	72.6434
516.9000	73.0032
516.8000	73.3131
516.7000	73.6623
516.6000	73.9824
516.5000	74.3639
516.4000	74.6756
516.3000	75.0699
516.2000	75.5133
516.1000	75.8993
516.0000	76.3637
515.9000	76.6683
515.8000	77.0604
515.7000	77.4053
515.6000	77.6838
515.5000	78.0451
515.4000	78.3127
515.3000	78.5682
515.2000	78.7545
515.1000	78.901
515.0000	79.1081
514.9000	79.1135
514.8000	79.2573
514.7000	79.3164
514.6000	79.3764
514.5000	79.4496
514.4000	79.4113
514.3000	79.4509
514.2000	79.2271
514.1000	79.1965
514.0000	79.1156
513.9000	78.9686
513.8000	78.9705
513.7000	78.8538
513.6000	78.7912
513.5000	78.487
513.4000	78.1814
513.3000	77.9623
513.2000	77.7029
513.1000	77.3425
513.0000	76.9892
512.9000	76.597
512.8000	76.3213
512.7000	75.9294
512.6000	75.6011
512.5000	75.2391
512.4000	74.8559
512.3000	74.4395
512.2000	74.0667
512.1000	73.733
512.0000	73.4143
511.9000	72.8842
511.8000	72.4553
511.7000	72.1356
511.6000	71.8126
511.5000	71.3726
511.4000	70.9713
511.3000	70.8857
511.2000	70.6596
511.1000	70.3936
511.0000	70.2344
510.9000	70.0439
510.8000	69.9596
510.7000	69.5963
510.6000	69.3651
510.5000	69.4132
510.4000	69.1773
510.3000	69.1814
510.2000	69.0658
510.1000	69.0951
510.0000	69.1777
509.9000	69.2512
509.8000	69.4292
509.7000	69.622
509.6000	69.8015
509.5000	70.0724
509.4000	70.1981
509.3000	70.4311
509.2000	70.7358
509.1000	70.953
509.0000	71.2583
508.9000	71.435
508.8000	71.9052
508.7000	72.1865
508.6000	72.41
508.5000	72.8198
508.4000	73.2272
508.3000	73.6241
508.2000	74.0481
508.1000	74.4841
508.0000	74.9646
507.9000	75.4067
507.8000	75.6874
507.7000	76.119
507.6000	76.4847
507.5000	76.8091
507.4000	77.1374
507.3000	77.4033
507.2000	77.7034
507.1000	78.0119
507.0000	78.0954
506.9000	78.4203
506.8000	78.6661
506.7000	78.8157
506.6000	78.9196
506.5000	79.0523
506.4000	79.201
506.3000	79.3231
506.2000	79.2765
506.1000	79.309
506.0000	79.2365
505.9000	79.2387
505.8000	79.0694
505.7000	78.9067
505.6000	78.6803
505.5000	78.4491
505.4000	78.1611
505.3000	77.9733
505.2000	77.6844
505.1000	77.535
505.0000	77.3148
504.9000	76.9649
504.8000	76.6872
504.7000	76.3371
504.6000	75.9063
504.5000	75.5172
504.4000	75.1617
504.3000	74.7164
504.2000	74.379
504.1000	73.9773
504.0000	73.8015
503.9000	73.3918
503.8000	73.0577
503.7000	72.886
503.6000	72.5186
503.5000	72.1261
503.4000	71.6959
503.3000	71.526
503.2000	71.2404
503.1000	70.8353
503.0000	70.5583
502.9000	70.3835
502.8000	70.1541
502.7000	70.0208
502.6000	69.8054
502.5000	69.635
502.4000	69.4693
502.3000	69.4799
502.2000	69.4053
502.1000	69.3088
502.0000	69.5001
501.9000	69.6228
501.8000	69.8242
501.7000	69.9726
501.6000	70.1104
501.5000	70.3026
501.4000	70.397
501.3000	70.571
501.2000	70.811
501.1000	71.0143
501.0000	71.2649
500.9000	71.5784
500.8000	71.9018
500.7000	72.1622
500.6000	72.5375
500.5000	72.9185
500.4000	73.4038
500.3000	73.6949
500.2000	74.1802
500.1000	74.6297
500.0000	75.1002
499.9000	75.4293
499.8000	75.6996
499.7000	76.1336
499.6000	76.3901
499.5000	76.6414
499.4000	76.8783
499.3000	77.1145
499.2000	77.4445
499.1000	77.7224
499.0000	77.9668
498.9000	78.1478
498.8000	78.2807
498.7000	78.4248
498.6000	78.5105
498.5000	78.6949
498.4000	78.6931
498.3000	78.8546
498.2000	78.8637
498.1000	78.7838
498.0000	78.7119
497.9000	78.5673
497.8000	78.4301
497.7000	78.2075
497.6000	77.9698
497.5000	77.9217
497.4000	77.8073
497.3000	77.5397
497.2000	77.3278
497.1000	77.1348
497.0000	76.7485
496.9000	76.406
496.8000	75.9675
496.7000	75.4662
496.6000	75.1795
496.5000	74.7933
496.4000	74.4308
496.3000	74.0821
496.2000	73.6978
496.1000	73.4976
496.0000	73.1584
495.9000	72.7155
495.8000	72.4441
495.7000	72.1016
495.6000	71.8236
495.5000	71.4194
495.4000	71.0847
495.3000	70.8949
495.2000	70.7643
495.1000	70.6066
495.0000	70.418
494.9000	70.297
494.8000	70.3152
494.7000	70.2197
494.6000	70.1256
494.5000	70.1021
494.4000	70.0769
494.3000	70.2121
494.2000	70.1583
494.1000	70.1485
494.0000	70.1645
493.9000	70.2784
493.8000	70.4663
493.7000	70.5629
493.6000	70.7156
493.5000	71.0509
493.4000	71.3561
493.3000	71.6527
493.2000	71.9949
493.1000	72.3507
493.0000	72.6788
492.9000	73.083
492.8000	73.3504
492.7000	73.7676
492.6000	74.1162
492.5000	74.3823
492.4000	74.7101
492.3000	75.1126
492.2000	75.5399
492.1000	75.9175
492.0000	76.246
491.9000	76.6553
491.8000	77.0095
491.7000	77.3402
491.6000	77.4936
491.5000	77.6746
491.4000	77.775
491.3000	78.1189
491.2000	78.186
491.1000	78.3129
491.0000	78.4225
490.9000	78.3475
490.8000	78.4071
490.7000	78.478
490.6000	78.4444
490.5000	78.3556
490.4000	78.2403
490.3000	78.249
490.2000	78.1305
490.1000	77.9373
490.0000	77.7284
489.9000	77.5019
489.8000	77.3005
489.7000	77.0681
489.6000	76.744
489.5000	76.6104
489.4000	76.1554
489.3000	75.7354
489.2000	75.4462
489.1000	75.0082
489.0000	74.6492
488.9000	74.3758
488.8000	74.0559
488.7000	73.7667
488.6000	73.5263
488.5000	73.2192
488.4000	72.8893
488.3000	72.5304
488.2000	72.2108
488.1000	72.0032
488.0000	71.6766
487.9000	71.4102
487.8000	71.1795
487.7000	70.9994
487.6000	70.8319
487.5000	70.6799
487.4000	70.5299
487.3000	70.4126
487.2000	70.2997
487.1000	70.3211
487.0000	70.2848
486.9000	70.3553
486.8000	70.3841
486.7000	70.4603
486.6000	70.5477
486.5000	70.6312
486.4000	70.7536
486.3000	70.9306
486.2000	71.0633
486.1000	71.2774
486.0000	71.5999
485.9000	71.8199
485.8000	72.2011
485.7000	72.5041
485.6000	72.8688
485.5000	73.175
485.4000	73.3821
485.3000	73.696
485.2000	74.1076
485.1000	74.4406
485.0000	74.6397
484.9000	74.9345
484.8000	75.2872
484.7000	75.5347
484.6000	75.8005
484.5000	76.0096
484.4000	76.3087
484.3000	76.605
484.2000	77.0017
484.1000	77.3049
484.0000	77.5816
483.9000	77.6666
483.8000	77.909
483.7000	77.9344
483.6000	78.015
483.5000	78.0094
483.4000	77.932
483.3000	77.954
483.2000	77.8871
483.1000	77.7217
483.0000	77.5916
482.9000	77.3914
482.8000	77.2161
482.7000	77.057
482.6000	76.8434
482.5000	76.6814
482.4000	76.3827
482.3000	76.138
482.2000	75.8671
482.1000	75.4988
482.0000	75.2246
481.9000	74.9419
481.8000	74.5243
481.7000	74.188
481.6000	73.9424
481.5000	73.7156
481.4000	73.4013
481.3000	73.1879
481.2000	72.8972
481.1000	72.6408
481.0000	72.3238
480.9000	72.0732
480.8000	71.8032
480.7000	71.5012
480.6000	71.2714
480.5000	71.0526
480.4000	70.9587
480.3000	70.7062
480.2000	70.6048
480.1000	70.516
480.0000	70.3629
479.9000	70.3775
479.8000	70.5609
479.7000	70.4975
479.6000	70.6174
479.5000	70.8431
479.4000	71.0872
479.3000	71.1711
479.2000	71.2542
479.1000	71.3751
479.0000	71.6301
478.9000	71.7348
478.8000	71.7691
478.7000	71.9837
478.6000	72.2859
478.5000	72.5143
478.4000	72.89
478.3000	73.1508
478.2000	73.5788
478.1000	74.0202
478.0000	74.4385
477.9000	74.7961
477.8000	75.2143
477.7000	75.6029
477.6000	75.9138
477.5000	76.2495
477.4000	76.3841
477.3000	76.619
477.2000	76.761
477.1000	76.8832
477.0000	77.0254
476.9000	77.098
476.8000	77.1985
476.7000	77.3464
476.6000	77.3777
476.5000	77.3959
476.4000	77.3677
476.3000	77.3721
476.2000	77.3872
476.1000	77.1217
476.0000	77.0553
475.9000	76.9505
475.8000	76.7316
475.7000	76.6971
475.6000	76.5468
475.5000	76.4264
475.4000	76.2776
475.3000	75.9545
475.2000	75.6917
475.1000	75.3734
475.0000	74.9646
474.9000	74.6354
474.8000	74.3481
474.7000	73.9985
474.6000	73.7612
474.5000	73.3559
474.4000	73.1158
474.3000	72.8043
474.2000	72.5572
474.1000	72.2628
474.0000	72.0902
473.9000	71.8438
473.8000	71.628
473.7000	71.3976
473.6000	71.0838
473.5000	70.8671
473.4000	70.7765
473.3000	70.6556
473.2000	70.6065
473.1000	70.556
473.0000	70.6305
472.9000	70.7457
472.8000	70.8234
472.7000	70.7847
472.6000	70.8761
472.5000	71.0301
472.4000	71.2281
472.3000	71.3735
472.2000	71.5828
472.1000	71.9023
472.0000	72.2002
471.9000	72.4556
471.8000	72.6411
471.7000	72.9464
471.6000	73.1782
471.5000	73.3381
471.4000	73.6189
471.3000	74.0422
471.2000	74.4085
471.1000	74.7697
471.0000	75.1185
470.9000	75.4865
470.8000	75.6983
470.7000	75.8924
470.6000	76.0754
470.5000	76.1954
470.4000	76.3062
470.3000	76.4924
470.2000	76.6676
470.1000	76.8324
470.0000	76.9879
469.9000	76.9104
469.8000	76.9432
469.7000	76.8488
469.6000	76.8825
469.5000	76.7922
469.4000	76.8243
469.3000	76.7209
469.2000	76.659
469.1000	76.6194
469.0000	76.3541
468.9000	76.1567
468.8000	75.8832
468.7000	75.6045
468.6000	75.2964
468.5000	74.9265
468.4000	74.6266
468.3000	74.2038
468.2000	73.9408
468.1000	73.7093
468.0000	73.3333
467.9000	73.104
467.8000	72.8781
467.7000	72.6389
467.6000	72.3973
467.5000	72.0855
467.4000	72.002
467.3000	71.6544
467.2000	71.3609
467.1000	71.2938
467.0000	71.1661
466.9000	71.0106
466.8000	70.8279
466.7000	70.8005
466.6000	70.6571
466.5000	70.7215
466.4000	70.5247
466.3000	70.5343
466.2000	70.589
466.1000	70.5687
466.0000	70.7588
465.9000	70.8892
465.8000	70.9748
465.7000	71.1993
465.6000	71.2965
465.5000	71.541
465.4000	71.8097
465.3000	72.1711
465.2000	72.5023
465.1000	72.8024
465.0000	73.0446
464.9000	73.3714
464.8000	73.6521
464.7000	73.928
464.6000	74.2772
464.5000	74.628
464.4000	74.9141
464.3000	75.2994
464.2000	75.5839
464.1000	75.9056
464.0000	76.1252
463.9000	76.3584
463.8000	76.4861
463.7000	76.6393
463.6000	76.8478
463.5000	76.79
463.4000	76.6172
463.3000	76.5678
463.2000	76.5552
463.1000	76.3809
463.0000	76.2421
462.9000	76.1224
462.8000	75.9605
462.7000	75.8856
462.6000	75.6607
462.5000	75.4485
462.4000	75.2889
462.3000	74.9913
462.2000	74.7471
462.1000	74.4873
462.0000	74.1933
461.9000	73.846
461.8000	73.6318
461.7000	73.3476
461.6000	73.0807
461.5000	72.8182
461.4000	72.5533
461.3000	72.2402
461.2000	72.0933
461.1000	71.8362
461.0000	71.5572
460.9000	71.2332
460.8000	70.9925
460.7000	70.8711
460.6000	70.723
460.5000	70.513
460.4000	70.3712
460.3000	70.4131
460.2000	70.3459
460.1000	70.3512
460.0000	70.3086
459.9000	70.4902
459.8000	70.6026
459.7000	70.8617
459.6000	71.2278
459.5000	71.3907
459.4000	71.6061
459.3000	71.7458
459.2000	71.9267
459.1000	72.1903
459.0000	72.4311
458.9000	72.5885
458.8000	72.8285
458.7000	73.3009
458.6000	73.5682
458.5000	73.8095
458.4000	74.0717
458.3000	74.3598
458.2000	74.7191
458.1000	74.817
458.0000	75.1026
457.9000	75.3836
457.8000	75.6042
457.7000	75.7997
457.6000	76.0105
457.5000	76.1176
457.4000	76.3372
457.3000	76.4244
457.2000	76.4544
457.1000	76.4303
457.0000	76.3839
456.9000	76.3386
456.8000	76.1838
456.7000	75.9859
456.6000	75.8299
456.5000	75.6574
456.4000	75.404
456.3000	75.1437
456.2000	75.0687
456.1000	74.8346
456.0000	74.4877
455.9000	74.0801
455.8000	73.7162
455.7000	73.3081
455.6000	72.9104
455.5000	72.622
455.4000	72.2388
455.3000	72.0267
455.2000	71.6812
455.1000	71.4232
455.0000	71.2193
454.9000	70.9424
454.8000	70.7571
454.7000	70.5956
454.6000	70.4527
454.5000	70.3559
454.4000	70.3262
454.3000	70.1618
454.2000	70.1359
454.1000	70.1238
454.0000	70.1674
453.9000	70.1776
453.8000	70.3048
453.7000	70.537
453.6000	70.7512
453.5000	71.0319
453.4000	71.2849
453.3000	71.5736
453.2000	71.6904
453.1000	71.8817
453.0000	72.0786
452.9000	72.2587
452.8000	72.5454
452.7000	72.7773
452.6000	73.111
452.5000	73.5523
452.4000	73.8814
452.3000	74.2454
452.2000	74.5974
452.1000	74.9062
452.0000	75.2911
451.9000	75.3674
451.8000	75.5422
451.7000	75.7071
451.6000	75.8977
451.5000	75.8959
451.4000	75.9578
451.3000	75.9583
451.2000	75.949
451.1000	76.0067
451.0000	75.9065
450.9000	75.6785
450.8000	75.4738
450.7000	75.2338
450.6000	74.9513
450.5000	74.6919
450.4000	74.2736
450.3000	74.0508
450.2000	73.7501
450.1000	73.5285
450.0000	73.2969
449.9000	73.0069
449.8000	72.6491
449.7000	72.2028
449.6000	71.9529
449.5000	71.5967
449.4000	71.2044
449.3000	70.796
449.2000	70.6268
449.1000	70.3682
449.0000	70.2437
448.9000	70.0539
448.8000	69.7836
448.7000	69.698
448.6000	69.6714
448.5000	69.5964
448.4000	69.5819
448.3000	69.6531
448.2000	69.6826
448.1000	69.9743
448.0000	70.131
447.9000	70.1143
447.8000	70.4204
447.7000	70.4925
447.6000	70.7717
447.5000	71.0075
447.4000	71.2893
447.3000	71.7186
447.2000	71.9897
447.1000	72.2922
447.0000	72.5332
446.9000	72.8706
446.8000	73.0817
446.7000	73.4643
446.6000	73.7172
446.5000	74.1154
446.4000	74.5328
446.3000	74.8795
446.2000	75.1685
446.1000	75.3037
446.0000	75.4136
445.9000	75.5336
445.8000	75.4944
445.7000	75.4707
445.6000	75.4836
445.5000	75.5921
445.4000	75.6954
445.3000	75.5831
445.2000	75.3477
445.1000	75.2634
445.0000	74.9335
444.9000	74.593
444.8000	74.2811
444.7000	73.8787
444.6000	73.5721
444.5000	73.1766
444.4000	72.7638
444.3000	72.4194
444.2000	71.9091
444.1000	71.5438
444.0000	71.2633
443.9000	70.8733
443.8000	70.5747
443.7000	70.2841
443.6000	70.1046
443.5000	69.8877
443.4000	69.5906
443.3000	69.5587
443.2000	69.355
443.1000	69.3787
443.0000	69.3101
442.9000	69.1401
442.8000	69.0849
442.7000	68.9444
442.6000	69.0165
442.5000	68.9988
442.4000	69.0965
442.3000	69.2273
442.2000	69.3846
442.1000	69.8142
442.0000	70.0187
441.9000	70.3867
441.8000	70.7757
441.7000	71.1559
441.6000	71.5175
441.5000	71.9009
441.4000	72.2608
441.3000	72.4867
441.2000	72.8347
441.1000	73.2513
441.0000	73.6258
440.9000	73.9999
440.8000	74.2455
440.7000	74.7685
440.6000	74.789
440.5000	75.0938
440.4000	75.1196
440.3000	75.1935
440.2000	75.2443
440.1000	75.0844
440.0000	75.2229
439.9000	75.1261
439.8000	74.8903
439.7000	74.7084
439.6000	74.6306
439.5000	74.4438
439.4000	74.0083
439.3000	73.814
439.2000	73.483
439.1000	73.1712
439.0000	72.7757
438.9000	72.4549
438.8000	71.9248
438.7000	71.4812
438.6000	71.0331
438.5000	70.6056
438.4000	70.2251
438.3000	69.8631
438.2000	69.4383
438.1000	69.2793
438.0000	69.1735
437.9000	68.9354
437.8000	68.7264
437.7000	68.4786
437.6000	68.4497
437.5000	68.2576
437.4000	68.1262
437.3000	68.2531
437.2000	68.2073
437.1000	68.1619
437.0000	68.3454
436.9000	68.6201
436.8000	68.9193
436.7000	69.0104
436.6000	69.2752
436.5000	69.6419
436.4000	70.0326
436.3000	70.5101
436.2000	70.7945
436.1000	71.2762
436.0000	71.6757
435.9000	72.1596
435.8000	72.4861
435.7000	72.8682
435.6000	73.0965
435.5000	73.441
435.4000	73.8761
435.3000	74.2292
435.2000	74.6386
435.1000	74.7187
435.0000	74.7993
434.9000	74.9787
434.8000	74.9383
434.7000	74.883
434.6000	74.8312
434.5000	74.8231
434.4000	74.8505
434.3000	74.5903
434.2000	74.4814
434.1000	74.0792
434.0000	73.6981
433.9000	73.3546
433.8000	72.8115
433.7000	72.3802
433.6000	71.9291
433.5000	71.332
433.4000	70.9243
433.3000	70.4894
433.2000	69.9248
433.1000	69.5071
433.0000	68.9805
432.9000	68.7383
432.8000	68.3207
432.7000	67.9672
432.6000	67.8304
432.5000	67.6143
432.4000	67.6107
432.3000	67.4133
432.2000	67.4088
432.1000	67.4979
432.0000	67.5221
431.9000	67.7059
431.8000	67.8772
431.7000	68.041
431.6000	68.3641
431.5000	68.5158
431.4000	68.7609
431.3000	68.8503
431.2000	69.1955
431.1000	69.6445
431.0000	70.0414
430.9000	70.5528
430.8000	71.0557
430.7000	71.6495
430.6000	72.1705
430.5000	72.6797
430.4000	72.9499
430.3000	73.1918
430.2000	73.496
430.1000	73.8412
430.0000	74.0377
429.9000	74.0894
429.8000	74.3679
429.7000	74.6386
429.6000	74.7187
429.5000	74.5938
429.4000	74.5344
429.3000	74.3749
429.2000	74.2589
429.1000	73.8042
429.0000	73.4947
428.9000	73.1262
428.8000	72.6577
428.7000	72.1573
428.6000	71.5985
428.5000	71.1865
428.4000	70.5843
428.3000	70.1686
428.2000	69.6771
428.1000	69.2451
428.0000	68.8566
427.9000	68.4936
427.8000	68.0711
427.7000	67.6978
427.6000	67.506
427.5000	67.1777
427.4000	66.9317
427.3000	66.5972
427.2000	66.3559
427.1000	66.3295
427.0000	66.2802
426.9000	66.1225
426.8000	66.3453
426.7000	66.5737
426.6000	66.7923
426.5000	67.0888
426.4000	67.5292
426.3000	67.9495
426.2000	68.2828
426.1000	68.7699
426.0000	69.3329
425.9000	69.9361
425.8000	70.4637
425.7000	70.9154
425.6000	71.5197
425.5000	71.9002
425.4000	72.3691
425.3000	72.7757
425.2000	73.0677
425.1000	73.3946
425.0000	73.5655
424.9000	73.77
424.8000	73.9829
424.7000	74.1611
424.6000	73.9935
424.5000	74.0487
424.4000	73.9906
424.3000	73.8414
424.2000	73.534
424.1000	73.1541
424.0000	72.7423
423.9000	72.3299
423.8000	71.8597
423.7000	71.1785
423.6000	70.7715
423.5000	70.2809
423.4000	69.8462
423.3000	69.2473
423.2000	68.7048
423.1000	68.1634
423.0000	67.4772
422.9000	67.102
422.8000	66.6289
422.7000	66.3338
422.6000	66.0983
422.5000	65.9121
422.4000	65.7379
422.3000	65.6612
422.2000	65.4429
422.1000	65.4452
422.0000	65.4198
421.9000	65.5296
421.8000	65.689
421.7000	66.0505
421.6000	66.4518
421.5000	66.8841
421.4000	67.3465
421.3000	67.8625
421.2000	68.3032
421.1000	68.8742
421.0000	69.4735
420.9000	69.9582
420.8000	70.4774
420.7000	71.1298
420.6000	71.561
420.5000	72.105
420.4000	72.2707
420.3000	72.5623
420.2000	72.9191
420.1000	73.1395
420.0000	73.42
419.9000	73.3796
419.8000	73.4037
419.7000	73.5071
419.6000	73.3973
419.5000	73.2221
419.4000	72.7946
419.3000	72.5271
419.2000	72.3372
419.1000	71.7188
419.0000	71.4722
418.9000	70.9733
418.8000	70.4234
418.7000	69.9523
418.6000	69.2588
418.5000	68.7014
418.4000	68.0573
418.3000	67.3639
418.2000	66.9003
418.1000	66.193
418.0000	65.6468
417.9000	65.3388
417.8000	64.9767
417.7000	64.7993
417.6000	64.3961
417.5000	64.2865
417.4000	64.4074
417.3000	64.4425
417.2000	64.4059
417.1000	64.6205
417.0000	64.8762
416.9000	65.4879
416.8000	65.8243
416.7000	66.3497
416.6000	67.1099
416.5000	67.587
416.4000	68.2887
416.3000	68.7317
416.2000	69.4491
416.1000	70.0435
416.0000	70.3122
415.9000	70.9611
415.8000	71.5649
415.7000	72.2648
415.6000	72.5768
415.5000	72.5774
415.4000	72.942
415.3000	73.0029
415.2000	72.9443
415.1000	72.8601
415.0000	72.5863
414.9000	72.7061
414.8000	72.5025
414.7000	72.1226
414.6000	71.5788
414.5000	71.2364
414.4000	70.5563
414.3000	69.6552
414.2000	68.9626
414.1000	68.4311
414.0000	67.7044
413.9000	67.1895
413.8000	66.6457
413.7000	66.1191
413.6000	65.6848
413.5000	65.2394
413.4000	64.8932
413.3000	64.4731
413.2000	64.1968
413.1000	64.0119
413.0000	63.8904
412.9000	63.7915
412.8000	63.6459
412.7000	63.7571
412.6000	63.9381
412.5000	64.1406
412.4000	64.7257
412.3000	65.0811
412.2000	65.7312
412.1000	66.4854
412.0000	67.0738
411.9000	67.5588
411.8000	68.1464
411.7000	68.7721
411.6000	69.5219
411.5000	70.0279
411.4000	70.6192
411.3000	71.154
411.2000	71.6999
411.1000	72.0588
411.0000	72.3866
410.9000	72.4508
410.8000	72.3497
410.7000	72.5202
410.6000	72.2988
410.5000	71.9727
410.4000	71.6081
410.3000	71.1523
410.2000	70.7927
410.1000	70.0855
410.0000	69.1409
409.9000	68.4164
409.8000	67.7926
409.7000	67.3439
409.6000	66.3632
409.5000	65.9136
409.4000	65.5135
409.3000	65.0474
409.2000	64.3994
409.1000	63.7621
409.0000	63.4209
408.9000	63.155
408.8000	62.7355
408.7000	62.5071
408.6000	62.474
408.5000	62.6172
408.4000	62.8959
408.3000	63.0939
408.2000	63.5949
408.1000	64.1613
408.0000	64.6762
407.9000	65.2852
407.8000	65.9081
407.7000	66.3382
407.6000	67.239
407.5000	67.6208
407.4000	68.2272
407.3000	68.9354
407.2000	69.5309
407.1000	70.1898
407.0000	70.4111
406.9000	70.7105
406.8000	71.3338
406.7000	71.5554
406.6000	71.7809
406.5000	71.7812
406.4000	71.8135
406.3000	71.5841
406.2000	71.0519
406.1000	70.6215
406.0000	69.8426
405.9000	69.0668
405.8000	68.3357
405.7000	67.6635
405.6000	67.0788
405.5000	66.5212
405.4000	65.8643
405.3000	65.1056
405.2000	64.4494
405.1000	63.8917
405.0000	63.3725
404.9000	62.813
404.8000	62.5251
404.7000	62.175
404.6000	61.9564
404.5000	62.0037
404.4000	62.0484
404.3000	62.1623
404.2000	62.4778
404.1000	62.745
404.0000	63.2929
403.9000	63.7435
403.8000	64.168
403.7000	64.8288
403.6000	65.5559
403.5000	66.0866
403.4000	66.7495
403.3000	67.3683
403.2000	68.0955
403.1000	68.5268
403.0000	69.1549
402.9000	69.7615
402.8000	70.1307
402.7000	70.3831
402.6000	70.5892
402.5000	70.7984
402.4000	70.9061
402.3000	70.5274
402.2000	70.3038
402.1000	69.943
402.0000	69.3757
401.9000	68.7352
401.8000	67.8138
401.7000	67.1591
401.6000	66.3793
401.5000	65.5602
401.4000	64.7727
401.3000	64.0491
401.2000	63.4807
401.1000	62.8645
401.0000	62.1393
400.9000	61.7926
400.8000	61.4393
400.7000	60.9977
400.6000	60.7935
400.5000	60.6947
400.4000	60.7254
400.3000	60.9788
400.2000	61.4123
400.1000	61.8981
400.0000	62.4889
399.9000	63.0161
399.8000	63.6545
399.7000	64.3873
399.6000	65.0851
399.5000	65.8625
399.4000	66.6876
399.3000	67.5671
399.2000	68.2077
399.1000	68.6887
399.0000	69.1461
398.9000	69.4265
398.8000	69.679
398.7000	69.7936
398.6000	69.7914
398.5000	69.5179
398.4000	69.309
398.3000	68.7737
398.2000	68.2373
398.1000	67.7633
398.0000	67.1204
397.9000	66.4461
397.8000	65.674
397.7000	64.9994
397.6000	64.3267
397.5000	63.4015
397.4000	62.5642
397.3000	61.7985
397.2000	61.0746
397.1000	60.7319
397.0000	60.2453
396.9000	60.1476
396.8000	60.0639
396.7000	60.2939
396.6000	60.5624
396.5000	60.834
396.4000	61.231
396.3000	61.7138
396.2000	62.2174
396.1000	62.63
396.0000	63.2497
395.9000	64.0876
395.8000	64.7426
395.7000	65.254
395.6000	65.8822
395.5000	66.5391
395.4000	67.1257
395.3000	67.6057
395.2000	67.8906
395.1000	67.8866
395.0000	68.381
394.9000	68.3301
394.8000	68.1963
394.7000	67.82
394.6000	67.5186
394.5000	67.2518
394.4000	66.4681
394.3000	65.8412
394.2000	65.2433
394.1000	64.4654
394.0000	63.6896
393.9000	62.9813
393.8000	62.1925
393.7000	61.7395
393.6000	61.0401
393.5000	60.8391
393.4000	60.3192
393.3000	59.9625
393.2000	60.0726
393.1000	59.957
393.0000	59.9593
392.9000	60.0963
392.8000	60.4176
392.7000	60.9614
392.6000	61.5452
392.5000	61.9967
392.4000	62.7157
392.3000	63.5
392.2000	64.2266
392.1000	64.9838
392.0000	65.4962
391.9000	66.0699
391.8000	66.5615
391.7000	66.8783
391.6000	67.1894
391.5000	67.2191
391.4000	67.2605
391.3000	66.8796
391.2000	66.6377
391.1000	66.1083
391.0000	65.552
390.9000	64.9597
390.8000	64.2548
390.7000	63.5191
390.6000	62.7011
390.5000	61.7174
390.4000	61.0246
390.3000	60.3917
390.2000	59.8327
390.1000	59.3942
390.0000	58.9499
389.9000	58.8289
389.8000	58.686
389.7000	58.5524
389.6000	58.6318
389.5000	58.8126
389.4000	59.2964
389.3000	59.7439
389.2000	60.4883
389.1000	61.0814
389.0000	61.7869
388.9000	62.4613
388.8000	63.1794
388.7000	63.8191
388.6000	64.4352
388.5000	65.1723
388.4000	65.7293
388.3000	66.1374
388.2000	66.4267
388.1000	66.1862
388.0000	66.0813
387.9000	65.5117
387.8000	64.7565
387.7000	64.0982
387.6000	63.4555
387.5000	62.7684
387.4000	61.8893
387.3000	61.2686
387.2000	60.676
387.1000	60.1559
387.0000	59.4825
386.9000	58.7978
386.8000	58.293
386.7000	57.7487
386.6000	57.4055
386.5000	57.3749
386.4000	57.3286
386.3000	57.3919
386.2000	57.9246
386.1000	58.1307
386.0000	58.7619
385.9000	59.4302
385.8000	60.0387
385.7000	60.8882
385.6000	61.7451
385.5000	62.5676
385.4000	63.3128
385.3000	63.7995
385.2000	64.0859
385.1000	64.3718
385.0000	64.3553
384.9000	64.1218
384.8000	63.7515
384.7000	63.2285
384.6000	62.9384
384.5000	62.3243
384.4000	61.6783
384.3000	60.7787
384.2000	60.1606
384.1000	59.5502
384.0000	58.7438
383.9000	58.0007
383.8000	57.2968
383.7000	56.8794
383.6000	56.642
383.5000	56.3631
383.4000	56.2962
383.3000	56.5374
383.2000	56.9397
383.1000	57.2349
383.0000	57.7363
382.9000	58.3816
382.8000	59.0988
382.7000	59.7621
382.6000	60.5056
382.5000	61.1688
382.4000	61.6915
382.3000	62.0692
382.2000	62.4505
382.1000	62.6449
382.0000	62.5296
381.9000	62.3657
381.8000	61.9801
381.7000	61.5501
381.6000	60.8876
381.5000	60.2015
381.4000	59.6267
381.3000	59.0107
381.2000	58.1819
381.1000	57.6201
381.0000	57.0746
380.9000	56.4436
380.8000	56.1672
380.7000	55.4992
380.6000	55.3949
380.5000	55.6077
380.4000	55.7009
380.3000	56.0726
380.2000	56.573
380.1000	57.1887
380.0000	57.8036
379.9000	58.439
379.8000	58.9164
379.7000	59.6212
379.6000	59.8445
379.5000	60.3142
379.4000	60.3532
379.3000	60.4056
379.2000	60.4703
379.1000	60.079
379.0000	59.7217
378.9000	59.3584
378.8000	58.7091
378.7000	58.0285
378.6000	57.4054
378.5000	56.6983
378.4000	56.0234
378.3000	55.2959
378.2000	54.8723
378.1000	54.4903
378.0000	54.2824
377.9000	54.5545
377.8000	54.5913
377.7000	54.9033
377.6000	55.2083
377.5000	55.6765
377.4000	56.2751
377.3000	56.7084
377.2000	57.4149
377.1000	57.8807
377.0000	58.1114
376.9000	58.6173
376.8000	58.6155
376.7000	58.6483
376.6000	58.4414
376.5000	58.3423
376.4000	58.0875
376.3000	57.3421
376.2000	56.9814
376.1000	56.3893
376.0000	55.5303
375.9000	54.7507
375.8000	54.0751
375.7000	53.5538
375.6000	52.9832
375.5000	52.7901
375.4000	52.5583
375.3000	52.7846
375.2000	53.174
375.1000	53.3124
375.0000	53.9913
374.9000	54.4253
374.8000	54.8182
374.7000	55.1901
374.6000	55.3278
374.5000	55.7207
374.4000	55.6972
374.3000	55.6149
374.2000	55.3758
374.1000	54.9596
374.0000	54.4132
373.9000	53.9294
373.8000	53.0119
373.7000	52.1188
373.6000	51.5064
373.5000	50.8453
373.4000	50.5413
373.3000	50.1264
373.2000	49.9304
373.1000	49.9264
373.0000	50.1725
372.9000	50.4166
372.8000	50.6454
372.7000	50.7899
372.6000	51.043
372.5000	51.4658
372.4000	51.5618
372.3000	51.4902
372.2000	51.146
372.1000	50.8302
372.0000	50.247
371.9000	49.6395
371.8000	48.8335
371.7000	47.9602
371.6000	47.0797
371.5000	46.327
371.4000	45.6254
371.3000	44.9396
371.2000	44.5732
371.1000	44.3083
371.0000	44.4656
370.9000	44.5805
370.8000	44.4843
370.7000	44.6853
370.6000	44.6184
370.5000	44.2806
370.4000	43.917
370.3000	43.2008
370.2000	42.5126
370.1000	41.8244
370.0000	40.5946
369.9000	39.749
369.8000	38.8332
369.7000	37.9325
369.6000	37.0645
369.5000	36.2261
369.4000	35.7348
369.3000	35.1965
369.2000	34.6781
369.1000	34.2536
369.0000	33.6506
368.9000	33.0278
368.8000	32.3509
368.7000	31.5999
368.6000	30.6636
368.5000	29.873
368.4000	28.784
368.3000	27.658
368.2000	26.4393
368.1000	25.4218
368.0000	24.4304
367.9000	23.1889
367.8000	22.1207
367.7000	21.0596
367.6000	20.1913
367.5000	19.0597
367.4000	18.1246
367.3000	17.1182
367.2000	16.1753
367.1000	15.1929
367.0000	14.0157
366.9000	13.1477
366.8000	12.1419
366.7000	11.3054
366.6000	10.4242
366.5000	9.60102
366.4000	8.84263
366.3000	8.06432
366.2000	7.27762
366.1000	6.45254
366.0000	5.69251
365.9000	4.99115
365.8000	4.35026
365.7000	3.75267
365.6000	3.27694
365.5000	2.82174
365.4000	2.42628
365.3000	2.10948
365.2000	1.74974
365.1000	1.43959
365.0000	1.1652
364.9000	0.973756
364.8000	0.800779
364.7000	0.671161
364.6000	0.528641
364.5000	0.404879
364.4000	0.359728
364.3000	0.320934
364.2000	0.247378
364.1000	0.212786
364.0000	0.180457
363.9000	0.167736
363.8000	0.159438
363.7000	0.134467
363.6000	0.120795
363.5000	0.101042
363.4000	0.0837983
363.3000	0.0687122
363.2000	0.0566195
363.1000	0.0816973
363.0000	0.0819594
362.9000	0.11541
362.8000	0.0995111
362.7000	0.0923348
362.6000	0.0957362
362.5000	0.0862182
362.4000	0.0964327
362.3000	0.0541829
362.2000	0.0503811
362.1000	0.0885788
362.0000	0.0971061
361.9000	0.103495
361.8000	0.0928146
361.7000	0.0917128
361.6000	0.111678
361.5000	0.094469
361.4000	0.0701866
361.3000	0.0648735
361.2000	0.0670321
361.1000	0.0568188
361.0000	0.0522859
360.9000	0.0591828
360.8000	0.0732316
360.7000	0.0554106
360.6000	0.0556044
360.5000	0.0681773
360.4000	0.0800538
360.3000	0.0623225
360.2000	0.0353328
360.1000	0.0492366
360.0000	0.0638105
359.9000	0.0639022
359.8000	0.0669757
359.7000	0.054093
359.6000	0.0665064
359.5000	0.0745599
359.4000	0.0644906
359.3000	0.0751126
359.2000	0.0660557
359.1000	0.0887143
359.0000	0.0658752
358.9000	0.0764134
358.8000	0.088825
358.7000	0.0829738
358.6000	0.075551
358.5000	0.0784725
358.4000	0.122771
358.3000	0.116195
358.2000	0.106228
358.1000	0.104535
358.0000	0.104221
357.9000	0.102214
357.8000	0.0670382
357.7000	0.0569616
357.6000	0.073557
357.5000	0.0849386
357.4000	0.0840068
357.3000	0.0801162
357.2000	0.0912185
357.1000	0.101919
357.0000	0.0971924
356.9000	0.105327
356.8000	0.100584
356.7000	0.103436
356.6000	0.10699
356.5000	0.107114
356.4000	0.107351
356.3000	0.109914
356.2000	0.101982
356.1000	0.0847505
356.0000	0.0864828
355.9000	0.0671057
355.8000	0.0735728
355.7000	0.0754382
355.6000	0.0815612
355.5000	0.0622559
355.4000	0.0674262
355.3000	0.0723617
355.2000	0.0652634
355.1000	0.0487722
355.0000	0.0449218
354.9000	0.0655243
354.8000	0.0772415
354.7000	0.075163
354.6000	0.0711497
354.5000	0.0762757
354.4000	0.0734252
354.3000	0.0361732
354.2000	0.034126
354.1000	0.0313272
354.0000	0.0348811
353.9000	0.0474537
353.8000	0.035067
353.7000	0.0460467
353.6000	0.0681922
353.5000	0.0619663
353.4000	0.0793509
353.3000	0.0722875
353.2000	0.074416
353.1000	0.066923
353.0000	0.0598657
352.9000	0.078844
352.8000	0.0576749
352.7000	0.0451868
352.6000	0.0427374
352.5000	0.0517302
352.4000	0.0539976
352.3000	0.0503253
352.2000	0.0603721
352.1000	0.06881
352.0000	0.0780684
351.9000	0.0798862
351.8000	0.0920286
351.7000	0.0834903
351.6000	0.07571
351.5000	0.0768901
351.4000	0.0888903
351.3000	0.0670324
351.2000	0.0795851
351.1000	0.0815614
351.0000	0.0766352
350.9000	0.0993938
350.8000	0.104052
350.7000	0.127222
350.6000	0.111698
350.5000	0.10031
350.4000	0.0961571
350.3000	0.0829884
350.2000	0.0466194
350.1000	0.0465612
350.0000	0.0341456
