TITLE	prova_10
DATA TYPE	ULTRAVIOLET SPECTRUM
ORIGIN	JASCO
OWNER	
DATE	21/04/27
TIME	17:52:33
SPECTROMETER/DATA SYSTEM	
RESOLUTION	
DELTAX	-1
XUNITS	NANOMETERS
YUNITS	TRANSMITTANCE
FIRSTX	  850.0000
LASTX	  250.0000
NPOINTS	     601
FIRSTY	    61.78018
MAXY	    63.97551
MINY	     0.00229
XYDATA
850.0000	61.7802
849.0000	60.9796
848.0000	60.0207
847.0000	58.9916
846.0000	57.9356
845.0000	56.9185
844.0000	55.9767
843.0000	55.1771
842.0000	54.558
841.0000	54.1361
840.0000	53.9477
839.0000	54.0061
838.0000	54.305
837.0000	54.8297
836.0000	55.5588
835.0000	56.4747
834.0000	57.5078
833.0000	58.6155
832.0000	59.7127
831.0000	60.7503
830.0000	61.6578
829.0000	62.346
828.0000	62.7808
827.0000	62.9158
826.0000	62.7331
825.0000	62.2763
824.0000	61.549
823.0000	60.6062
822.0000	59.5138
821.0000	58.3583
820.0000	57.2051
819.0000	56.1317
818.0000	55.1972
817.0000	54.447
816.0000	53.9342
815.0000	53.6863
814.0000	53.7249
813.0000	54.0191
812.0000	54.5771
811.0000	55.376
810.0000	56.3753
809.0000	57.5052
808.0000	58.6747
807.0000	59.8289
806.0000	60.891
805.0000	61.7454
804.0000	62.3314
803.0000	62.5893
802.0000	62.501
801.0000	62.065
800.0000	61.3119
799.0000	60.3317
798.0000	59.1734
797.0000	57.9452
796.0000	56.7423
795.0000	55.6589
794.0000	54.7555
793.0000	54.089
792.0000	53.7058
791.0000	53.6239
790.0000	53.8572
789.0000	54.3853
788.0000	55.1838
787.0000	56.2
786.0000	57.3693
785.0000	58.6051
784.0000	59.8082
783.0000	60.8756
782.0000	61.7155
781.0000	62.2581
780.0000	62.4316
779.0000	62.2312
778.0000	61.6627
777.0000	60.7988
776.0000	59.7162
775.0000	58.5099
774.0000	57.2749
773.0000	56.1261
772.0000	55.1491
771.0000	54.4112
770.0000	53.9668
769.0000	53.8463
768.0000	54.0658
767.0000	54.6091
766.0000	55.4422
765.0000	56.5068
764.0000	57.7268
763.0000	58.9997
762.0000	60.2157
761.0000	61.2591
760.0000	62.0275
759.0000	62.4371
758.0000	62.4422
757.0000	62.0437
756.0000	61.279
755.0000	60.2426
754.0000	59.0332
753.0000	57.7758
752.0000	56.5926
751.0000	55.5891
750.0000	54.8504
749.0000	54.4435
748.0000	54.393
747.0000	54.7179
746.0000	55.3915
745.0000	56.3668
744.0000	57.555
743.0000	58.8493
742.0000	60.1395
741.0000	61.2737
740.0000	62.0448
739.0000	62.5446
738.0000	62.62
737.0000	62.2686
736.0000	61.5395
735.0000	60.5189
734.0000	59.3339
733.0000	58.1156
732.0000	56.9869
731.0000	56.0719
730.0000	55.4542
729.0000	55.1881
728.0000	55.3096
727.0000	55.8077
726.0000	56.6438
725.0000	57.7403
724.0000	58.9865
723.0000	60.2669
722.0000	61.4273
721.0000	62.3295
720.0000	62.8744
719.0000	62.9868
718.0000	62.6674
717.0000	61.9517
716.0000	60.9351
715.0000	59.7557
714.0000	58.5588
713.0000	57.4849
712.0000	56.6537
711.0000	56.1598
710.0000	56.0635
709.0000	56.3726
708.0000	57.0575
707.0000	58.0435
706.0000	59.2262
705.0000	60.4571
704.0000	61.5789
703.0000	62.4549
702.0000	62.9583
701.0000	63.0287
700.0000	62.657
699.0000	61.9131
698.0000	60.9155
697.0000	59.8094
696.0000	58.7451
695.0000	57.8695
694.0000	57.2873
693.0000	57.0793
692.0000	57.2702
691.0000	57.8424
690.0000	58.7489
689.0000	59.8824
688.0000	61.1134
687.0000	62.2864
686.0000	63.2335
685.0000	63.8265
684.0000	63.9755
683.0000	63.6525
682.0000	62.9294
681.0000	61.9264
680.0000	60.8085
679.0000	59.7544
678.0000	58.9193
677.0000	58.4214
676.0000	58.3338
675.0000	58.6599
674.0000	59.3429
673.0000	60.2978
672.0000	61.3802
671.0000	62.4235
670.0000	63.2744
669.0000	63.7961
668.0000	63.9039
667.0000	63.5873
666.0000	62.9002
665.0000	61.9839
664.0000	60.9864
663.0000	60.0805
662.0000	59.4122
661.0000	59.0899
660.0000	59.162
659.0000	59.6223
658.0000	60.3976
657.0000	61.3574
656.0000	62.3432
655.0000	63.184
654.0000	63.7227
653.0000	63.8758
652.0000	63.6085
651.0000	62.9907
650.0000	62.134
649.0000	61.2124
648.0000	60.3973
647.0000	59.8348
646.0000	59.6285
645.0000	59.8104
644.0000	60.3405
643.0000	61.1294
642.0000	62.0219
641.0000	62.846
640.0000	63.4344
639.0000	63.6757
638.0000	63.5165
637.0000	62.9907
636.0000	62.2192
635.0000	61.355
634.0000	60.5754
633.0000	60.0301
632.0000	59.8254
631.0000	59.9992
630.0000	60.5078
629.0000	61.2418
628.0000	62.0494
627.0000	62.7473
626.0000	63.1936
625.0000	63.2683
624.0000	62.9555
623.0000	62.3228
622.0000	61.5193
621.0000	60.7175
620.0000	60.0873
619.0000	59.756
618.0000	59.7917
617.0000	60.1876
616.0000	60.8484
615.0000	61.6053
614.0000	62.2865
613.0000	62.7195
612.0000	62.7923
611.0000	62.4751
610.0000	61.8443
609.0000	61.039
608.0000	60.2712
607.0000	59.71
606.0000	59.4759
605.0000	59.6183
604.0000	60.0975
603.0000	60.7882
602.0000	61.4993
601.0000	62.031
600.0000	62.1444
599.0000	61.9331
598.0000	61.3671
597.0000	60.5808
596.0000	59.7847
595.0000	59.1791
594.0000	58.9116
593.0000	59.033
592.0000	59.4995
591.0000	60.1721
590.0000	60.8547
589.0000	61.335
588.0000	61.4544
587.0000	61.1586
586.0000	60.5193
585.0000	59.7131
584.0000	58.9436
583.0000	58.4291
582.0000	58.2832
581.0000	58.5421
580.0000	59.1035
579.0000	59.796
578.0000	60.3936
577.0000	60.7023
576.0000	60.5976
575.0000	60.0869
574.0000	59.3256
573.0000	58.5341
572.0000	57.9346
571.0000	57.6938
570.0000	57.8644
569.0000	58.3678
568.0000	59.0379
567.0000	59.6409
566.0000	59.9546
565.0000	59.8452
564.0000	59.3335
563.0000	58.5898
562.0000	57.8422
561.0000	57.3292
560.0000	57.1952
559.0000	57.4646
558.0000	58.0339
557.0000	58.6749
556.0000	59.1502
555.0000	59.2572
554.0000	58.9527
553.0000	58.328
552.0000	57.6072
551.0000	57.0528
550.0000	56.8434
549.0000	57.0402
548.0000	57.5494
547.0000	58.17
546.0000	58.6675
545.0000	58.8281
544.0000	58.5751
543.0000	58.0183
542.0000	57.3922
541.0000	56.9381
540.0000	56.817
539.0000	57.0625
538.0000	57.5763
537.0000	58.1573
536.0000	58.5526
535.0000	58.5897
534.0000	58.2703
533.0000	57.7501
532.0000	57.2582
531.0000	57.0039
530.0000	57.0966
529.0000	57.4907
528.0000	58.0413
527.0000	58.5096
526.0000	58.6964
525.0000	58.5569
524.0000	58.1731
523.0000	57.7763
522.0000	57.5559
521.0000	57.6393
520.0000	57.9608
519.0000	58.4562
518.0000	58.8859
517.0000	59.0678
516.0000	58.9669
515.0000	58.6835
514.0000	58.4173
513.0000	58.3376
512.0000	58.5164
511.0000	58.8967
510.0000	59.3262
509.0000	59.6448
508.0000	59.7325
507.0000	59.6169
506.0000	59.4438
505.0000	59.3593
504.0000	59.4675
503.0000	59.7481
502.0000	60.1155
501.0000	60.4185
500.0000	60.5573
499.0000	60.5341
498.0000	60.4491
497.0000	60.4298
496.0000	60.5411
495.0000	60.7764
494.0000	61.0626
493.0000	61.2964
492.0000	61.4058
491.0000	61.4091
490.0000	61.3868
489.0000	61.4106
488.0000	61.5198
487.0000	61.7039
486.0000	61.8994
485.0000	62.031
484.0000	62.079
483.0000	62.0798
482.0000	62.0917
481.0000	62.1414
480.0000	62.2332
479.0000	62.3447
478.0000	62.4361
477.0000	62.4819
476.0000	62.4901
475.0000	62.4815
474.0000	62.4868
473.0000	62.5077
472.0000	62.5468
471.0000	62.5805
470.0000	62.6005
469.0000	62.5876
468.0000	62.5555
467.0000	62.5223
466.0000	62.4958
465.0000	62.4801
464.0000	62.4628
463.0000	62.4235
462.0000	62.3631
461.0000	62.2953
460.0000	62.2277
459.0000	62.1626
458.0000	62.116
457.0000	62.0405
456.0000	61.9568
455.0000	61.8551
454.0000	61.7489
453.0000	61.667
452.0000	61.5843
451.0000	61.4825
450.0000	61.3519
449.0000	61.2113
448.0000	61.0801
447.0000	60.9702
446.0000	60.8441
445.0000	60.6877
444.0000	60.5138
443.0000	60.3427
442.0000	60.1987
441.0000	60.0546
440.0000	59.8844
439.0000	59.6657
438.0000	59.4423
437.0000	59.2616
436.0000	59.1144
435.0000	58.9438
434.0000	58.6956
433.0000	58.4264
432.0000	58.2241
431.0000	58.0815
430.0000	57.9203
429.0000	57.6841
428.0000	57.4249
427.0000	57.2599
426.0000	57.1962
425.0000	57.109
424.0000	56.9183
423.0000	56.6813
422.0000	56.5557
421.0000	56.5359
420.0000	56.351
419.0000	56.1397
418.0000	55.9528
417.0000	55.9318
416.0000	55.987
415.0000	55.9311
414.0000	55.7516
413.0000	55.6733
412.0000	55.7642
411.0000	55.813
410.0000	55.7022
409.0000	55.5925
408.0000	55.6562
407.0000	55.7663
406.0000	55.7357
405.0000	55.6608
404.0000	55.7377
403.0000	55.8977
402.0000	55.9581
401.0000	55.9726
400.0000	56.1056
399.0000	56.3009
398.0000	56.4087
397.0000	56.4827
396.0000	56.6204
395.0000	56.7811
394.0000	56.861
393.0000	56.9142
392.0000	57.0026
391.0000	57.0744
390.0000	57.0876
389.0000	57.0868
388.0000	57.0896
387.0000	57.0558
386.0000	56.9894
385.0000	56.8895
384.0000	56.7592
383.0000	56.5909
382.0000	56.3626
381.0000	56.0774
380.0000	55.7171
379.0000	55.2457
378.0000	54.6434
377.0000	53.8141
376.0000	52.6601
375.0000	51.0344
374.0000	48.7388
373.0000	45.6157
372.0000	41.5425
371.0000	36.5819
370.0000	28.8342
369.0000	22.9568
368.0000	17.4012
367.0000	12.429
366.0000	8.32282
365.0000	5.18243
364.0000	2.93957
363.0000	1.47672
362.0000	0.629784
361.0000	0.21859
360.0000	0.061707
359.0000	0.0169368
358.0000	0.0074802
357.0000	0.00548499
356.0000	0.00466272
355.0000	0.00419157
354.0000	0.0040301
353.0000	0.00360195
352.0000	0.00336489
351.0000	0.00347845
350.0000	0.00359178
349.0000	0.00339639
348.0000	0.00339463
347.0000	0.00343073
346.0000	0.00335241
345.0000	0.00311912
344.0000	0.00300213
343.0000	0.00288662
342.0000	0.00276785
341.0000	0.00269141
340.0000	0.00904206
339.0000	0.00896887
338.0000	0.00865375
337.0000	0.00829916
336.0000	0.00825899
335.0000	0.00786847
334.0000	0.00790592
333.0000	0.00763228
332.0000	0.0073959
331.0000	0.00724026
330.0000	0.00727514
329.0000	0.00731275
328.0000	0.00715854
327.0000	0.00703593
326.0000	0.00699653
325.0000	0.00687689
324.0000	0.00656596
323.0000	0.00629288
322.0000	0.00605497
321.0000	0.00589463
320.0000	0.00566177
319.0000	0.00550124
318.0000	0.00542246
317.0000	0.00522472
316.0000	0.00503008
315.0000	0.00479776
314.0000	0.00464339
313.0000	0.00456316
312.0000	0.0046411
311.0000	0.0044846
310.0000	0.00440808
309.0000	0.00425405
308.0000	0.00436507
307.0000	0.0042893
306.0000	0.00398046
305.0000	0.00390374
304.0000	0.00409439
303.0000	0.00401463
302.0000	0.00401417
301.0000	0.00401217
300.0000	0.00404701
299.0000	0.00400708
298.0000	0.0036613
297.0000	0.00354492
296.0000	0.00354409
295.0000	0.00327421
294.0000	0.00319717
293.0000	0.00319328
292.0000	0.00345859
291.0000	0.00345737
290.0000	0.00337662
289.0000	0.00333875
288.0000	0.00329912
287.0000	0.0032592
286.0000	0.00314609
285.0000	0.00302827
284.0000	0.00306657
283.0000	0.00291293
282.0000	0.00290963
281.0000	0.00283451
280.0000	0.00271812
279.0000	0.00271682
278.0000	0.00271634
277.0000	0.00271601
276.0000	0.00282796
275.0000	0.00282898
274.0000	0.00282538
273.0000	0.00286129
272.0000	0.00282468
271.0000	0.00274642
270.0000	0.00263297
269.0000	0.00259391
268.0000	0.00247964
267.0000	0.00244143
266.0000	0.0024049
265.0000	0.00228826
264.0000	0.00236561
263.0000	0.00232628
262.0000	0.00236169
261.0000	0.00240161
260.0000	0.00251043
259.0000	0.00255071
258.0000	0.00247637
257.0000	0.00258641
256.0000	0.00262752
255.0000	0.00262494
254.0000	0.00270027
253.0000	0.00273761
252.0000	0.00273752
251.0000	0.00277567
250.0000	0.00277463
