TITLE	7.1
DATA TYPE	ULTRAVIOLET SPECTRUM
ORIGIN	JASCO
OWNER	
DATE	19/08/30
TIME	10:13:55
SPECTROMETER/DATA SYSTEM	
RESOLUTION	
DELTAX	-1
XUNITS	NANOMETERS
YUNITS	TRANSMITTANCE
FIRSTX	 2500.0000
LASTX	  350.0000
NPOINTS	    2151
FIRSTY	    75.46400
MAXY	    91.94743
MINY	     0.00679
XYDATA
2500.0000	75.464
2499.0000	78.7544
2498.0000	76.6179
2497.0000	69.0692
2496.0000	72.8116
2495.0000	76.4727
2494.0000	79.6744
2493.0000	73.7595
2492.0000	74.446
2491.0000	80.2157
2490.0000	79.6285
2489.0000	76.7225
2488.0000	77.2559
2487.0000	80.4767
2486.0000	79.4135
2485.0000	73.1148
2484.0000	73.0585
2483.0000	75.4978
2482.0000	74.06
2481.0000	71.8455
2480.0000	73.5366
2479.0000	78.6786
2478.0000	77.2055
2477.0000	74.1782
2476.0000	75.3516
2475.0000	76.6913
2474.0000	77.4724
2473.0000	73.518
2472.0000	77.0219
2471.0000	77.9818
2470.0000	73.9178
2469.0000	69.9387
2468.0000	69.3796
2467.0000	76.9166
2466.0000	72.7798
2465.0000	68.7493
2464.0000	70.941
2463.0000	76.3879
2462.0000	72.9608
2461.0000	69.5189
2460.0000	72.961
2459.0000	79.6863
2458.0000	78.8209
2457.0000	72.8071
2456.0000	73.1839
2455.0000	75.078
2454.0000	75.4221
2453.0000	74.7033
2452.0000	74.6114
2451.0000	76.2589
2450.0000	74.336
2449.0000	72.0374
2448.0000	74.7685
2447.0000	77.308
2446.0000	74.768
2445.0000	73.2103
2444.0000	77.405
2443.0000	79.2338
2442.0000	77.9631
2441.0000	72.6051
2440.0000	74.1257
2439.0000	74.0333
2438.0000	70.6664
2437.0000	71.3473
2436.0000	78.7606
2435.0000	78.5672
2434.0000	74.4605
2433.0000	73.7051
2432.0000	78.0809
2431.0000	79.3889
2430.0000	75.9374
2429.0000	74.2079
2428.0000	77.1217
2427.0000	76.1851
2426.0000	73.7088
2425.0000	76.3555
2424.0000	78.5119
2423.0000	74.2932
2422.0000	75.393
2421.0000	77.0483
2420.0000	78.0743
2419.0000	74.337
2418.0000	73.9918
2417.0000	77.3554
2416.0000	75.8702
2415.0000	76.5061
2414.0000	76.1286
2413.0000	82.8177
2412.0000	78.9345
2411.0000	76.9551
2410.0000	77.1624
2409.0000	80.0716
2408.0000	78.8665
2407.0000	76.8562
2406.0000	78.7635
2405.0000	80.8777
2404.0000	80.6392
2403.0000	78.6612
2402.0000	80.7971
2401.0000	82.2156
2400.0000	84.0685
2399.0000	86.4415
2398.0000	86.4069
2397.0000	83.7378
2396.0000	79.0416
2395.0000	79.5544
2394.0000	80.2092
2393.0000	80.8654
2392.0000	84.652
2391.0000	87.9224
2390.0000	86.3112
2389.0000	84.546
2388.0000	88.4662
2387.0000	89.0138
2386.0000	85.5877
2385.0000	83.1356
2384.0000	84.579
2383.0000	84.9423
2382.0000	85.5082
2381.0000	82.5092
2380.0000	84.9054
2379.0000	86.8
2378.0000	87.1643
2377.0000	89.0509
2376.0000	89.8089
2375.0000	86.3269
2374.0000	86.5114
2373.0000	87.6181
2372.0000	90.1313
2371.0000	87.6065
2370.0000	87.681
2369.0000	87.7722
2368.0000	89.4297
2367.0000	86.2569
2366.0000	86.7404
2365.0000	85.7692
2364.0000	85.6848
2363.0000	84.1434
2362.0000	85.4699
2361.0000	83.8897
2360.0000	84.0108
2359.0000	87.4731
2358.0000	85.6426
2357.0000	85.918
2356.0000	84.3335
2355.0000	86.0037
2354.0000	84.9357
2353.0000	86.1339
2352.0000	85.6686
2351.0000	87.621
2350.0000	85.3545
2349.0000	86.5457
2348.0000	86.8805
2347.0000	88.2514
2346.0000	85.9475
2345.0000	80.9571
2344.0000	82.389
2343.0000	83.205
2342.0000	84.3463
2341.0000	85.1758
2340.0000	85.2582
2339.0000	86.6176
2338.0000	88.5219
2337.0000	89.0736
2336.0000	86.8887
2335.0000	83.2176
2334.0000	83.611
2333.0000	85.1771
2332.0000	81.8579
2331.0000	82.0829
2330.0000	82.8141
2329.0000	83.5758
2328.0000	82.6198
2327.0000	85.3145
2326.0000	83.9081
2325.0000	85.5005
2324.0000	85.4508
2323.0000	86.1279
2322.0000	83.7203
2321.0000	79.3412
2320.0000	77.8121
2319.0000	80.9522
2318.0000	79.8934
2317.0000	84.0216
2316.0000	82.2634
2315.0000	82.2279
2314.0000	78.4314
2313.0000	81.8919
2312.0000	82.1454
2311.0000	80.9543
2310.0000	82.1123
2309.0000	81.4259
2308.0000	79.8537
2307.0000	75.7029
2306.0000	78.9189
2305.0000	78.4243
2304.0000	75.667
2303.0000	74.581
2302.0000	78.1984
2301.0000	80.1147
2300.0000	79.8912
2299.0000	79.9854
2298.0000	77.8276
2297.0000	74.3707
2296.0000	75.7087
2295.0000	78.3017
2294.0000	79.4643
2293.0000	78.8454
2292.0000	79.0724
2291.0000	78.0455
2290.0000	74.128
2289.0000	73.4185
2288.0000	74.461
2287.0000	73.4252
2286.0000	74.6107
2285.0000	75.7769
2284.0000	76.3342
2283.0000	75.4307
2282.0000	74.9724
2281.0000	74.5845
2280.0000	71.2991
2279.0000	72.9709
2278.0000	74.0358
2277.0000	71.8365
2276.0000	73.4199
2275.0000	71.0628
2274.0000	73.859
2273.0000	71.615
2272.0000	74.1974
2271.0000	73.8418
2270.0000	72.5471
2269.0000	75.0821
2268.0000	77.556
2267.0000	77.022
2266.0000	75.386
2265.0000	71.13
2264.0000	71.5086
2263.0000	70.0389
2262.0000	74.2446
2261.0000	73.2629
2260.0000	75.3182
2259.0000	73.4714
2258.0000	74.7784
2257.0000	75.0099
2256.0000	76.8318
2255.0000	77.1494
2254.0000	76.2518
2253.0000	75.4926
2252.0000	73.9267
2251.0000	72.3546
2250.0000	74.4372
2249.0000	73.4188
2248.0000	74.2484
2247.0000	75.3231
2246.0000	72.5053
2245.0000	72.8606
2244.0000	70.4754
2243.0000	69.2899
2242.0000	73.3718
2241.0000	74.606
2240.0000	76.8262
2239.0000	76.5246
2238.0000	76.3572
2237.0000	76.3636
2236.0000	73.1401
2235.0000	73.5795
2234.0000	74.5069
2233.0000	76.5749
2232.0000	75.8631
2231.0000	77.6346
2230.0000	76.6338
2229.0000	79.2657
2228.0000	76.6467
2227.0000	76.0662
2226.0000	73.347
2225.0000	75.1177
2224.0000	74.1057
2223.0000	74.7501
2222.0000	77.4327
2221.0000	77.1745
2220.0000	79.2016
2219.0000	80.1836
2218.0000	80.867
2217.0000	80.6047
2216.0000	80.8615
2215.0000	80.297
2214.0000	80.7402
2213.0000	79.6316
2212.0000	77.7845
2211.0000	79.3769
2210.0000	79.3286
2209.0000	80.2472
2208.0000	79.9987
2207.0000	80.7317
2206.0000	83.02
2205.0000	83.1834
2204.0000	81.8754
2203.0000	83.219
2202.0000	84.1105
2201.0000	83.2223
2200.0000	80.8149
2199.0000	80.8524
2198.0000	81.6303
2197.0000	83.2469
2196.0000	87.2224
2195.0000	88.8307
2194.0000	85.5479
2193.0000	87.4049
2192.0000	83.4484
2191.0000	87.343
2190.0000	84.2948
2189.0000	87.7575
2188.0000	84.6587
2187.0000	84.1255
2186.0000	87.3226
2185.0000	85.4153
2184.0000	84.6609
2183.0000	87.0947
2182.0000	86.567
2181.0000	87.4124
2180.0000	87.6365
2179.0000	89.3316
2178.0000	88.4515
2177.0000	89.2204
2176.0000	86.255
2175.0000	86.1262
2174.0000	87.7997
2173.0000	86.4207
2172.0000	85.5391
2171.0000	86.8424
2170.0000	86.9253
2169.0000	85.5948
2168.0000	86.2898
2167.0000	85.9062
2166.0000	86.0959
2165.0000	84.944
2164.0000	86.8139
2163.0000	86.7325
2162.0000	90.0257
2161.0000	89.9546
2160.0000	88.5636
2159.0000	88.1753
2158.0000	88.8462
2157.0000	85.4291
2156.0000	87.8032
2155.0000	85.8302
2154.0000	85.7783
2153.0000	85.6252
2152.0000	82.9908
2151.0000	83.8056
2150.0000	83.4622
2149.0000	85.9889
2148.0000	86.0093
2147.0000	83.9193
2146.0000	82.4713
2145.0000	82.5084
2144.0000	84.0854
2143.0000	84.4223
2142.0000	80.6938
2141.0000	84.5713
2140.0000	81.1433
2139.0000	82.2197
2138.0000	81.1134
2137.0000	81.8008
2136.0000	83.7748
2135.0000	84.051
2134.0000	83.2452
2133.0000	81.489
2132.0000	83.3719
2131.0000	84.3477
2130.0000	81.7276
2129.0000	80.6041
2128.0000	75.9243
2127.0000	76.9554
2126.0000	79.6778
2125.0000	77.2119
2124.0000	78.2748
2123.0000	76.8334
2122.0000	78.4044
2121.0000	77.6287
2120.0000	80.8883
2119.0000	80.4117
2118.0000	79.1365
2117.0000	79.5558
2116.0000	77.7395
2115.0000	78.57
2114.0000	77.727
2113.0000	76.4827
2112.0000	77.2421
2111.0000	76.8981
2110.0000	74.6637
2109.0000	76.0965
2108.0000	76.0837
2107.0000	74.2188
2106.0000	76.3737
2105.0000	74.5302
2104.0000	71.5177
2103.0000	70.5572
2102.0000	71.4676
2101.0000	71.4854
2100.0000	74.589
2099.0000	71.9279
2098.0000	71.2275
2097.0000	75.0001
2096.0000	75.1877
2095.0000	76.6438
2094.0000	74.9563
2093.0000	73.4629
2092.0000	71.6741
2091.0000	74.2967
2090.0000	72.8137
2089.0000	77.3971
2088.0000	77.2164
2087.0000	73.4063
2086.0000	74.3855
2085.0000	75.6812
2084.0000	74.9544
2083.0000	74.0961
2082.0000	72.1933
2081.0000	69.1212
2080.0000	72.8487
2079.0000	71.8834
2078.0000	73.111
2077.0000	74.5938
2076.0000	72.4517
2075.0000	73.0684
2074.0000	73.7898
2073.0000	73.5362
2072.0000	74.2879
2071.0000	75.1285
2070.0000	74.6903
2069.0000	76.4137
2068.0000	76.4504
2067.0000	73.0095
2066.0000	74.3866
2065.0000	73.7217
2064.0000	72.5286
2063.0000	73.9206
2062.0000	70.5651
2061.0000	72.1563
2060.0000	75.0345
2059.0000	74.9068
2058.0000	79.8545
2057.0000	76.2508
2056.0000	73.8014
2055.0000	73.6992
2054.0000	76.9638
2053.0000	77.5122
2052.0000	79.5799
2051.0000	77.1632
2050.0000	76.1928
2049.0000	76.8105
2048.0000	75.7414
2047.0000	78.4178
2046.0000	78.7342
2045.0000	75.3338
2044.0000	78.9108
2043.0000	78.8805
2042.0000	79.0702
2041.0000	80.7209
2040.0000	80.6049
2039.0000	82.2018
2038.0000	83.0837
2037.0000	81.5111
2036.0000	83.5704
2035.0000	83.966
2034.0000	83.0814
2033.0000	83.8161
2032.0000	80.3979
2031.0000	80.0645
2030.0000	79.2012
2029.0000	81.5403
2028.0000	85.4395
2027.0000	86.7804
2026.0000	87.1791
2025.0000	87.9786
2024.0000	85.5196
2023.0000	83.866
2022.0000	84.8838
2021.0000	82.8323
2020.0000	84.9065
2019.0000	85.5477
2018.0000	86.5844
2017.0000	89.1644
2016.0000	86.1971
2015.0000	89.2883
2014.0000	87.2201
2013.0000	86.9883
2012.0000	88.455
2011.0000	85.6106
2010.0000	83.6262
2009.0000	85.0231
2008.0000	86.5729
2007.0000	88.7816
2006.0000	84.9117
2005.0000	85.8986
2004.0000	84.8192
2003.0000	85.2909
2002.0000	84.8384
2001.0000	84.6061
2000.0000	88.1075
1999.0000	91.9474
1998.0000	88.7966
1997.0000	89.4581
1996.0000	88.6984
1995.0000	86.7629
1994.0000	87.8468
1993.0000	83.0524
1992.0000	84.5535
1991.0000	85.1419
1990.0000	84.0588
1989.0000	85.6099
1988.0000	83.975
1987.0000	83.2921
1986.0000	84.5975
1985.0000	80.8241
1984.0000	85.1089
1983.0000	81.0066
1982.0000	82.0931
1981.0000	81.4849
1980.0000	80.3847
1979.0000	82.3579
1978.0000	80.5402
1977.0000	80.8289
1976.0000	81.5143
1975.0000	79.7606
1974.0000	82.1233
1973.0000	82.8391
1972.0000	81.023
1971.0000	80.7363
1970.0000	78.0133
1969.0000	78.7328
1968.0000	76.9423
1967.0000	75.1518
1966.0000	80.4791
1965.0000	76.6641
1964.0000	79.5761
1963.0000	73.8069
1962.0000	75.4063
1961.0000	79.1935
1960.0000	76.685
1959.0000	80.5239
1958.0000	74.5603
1957.0000	75.1091
1956.0000	77.318
1955.0000	74.117
1954.0000	79.2628
1953.0000	75.519
1952.0000	77.863
1951.0000	75.7987
1950.0000	71.369
1949.0000	75.2061
1948.0000	73.8624
1947.0000	75.5323
1946.0000	74.6381
1945.0000	71.992
1944.0000	76.0628
1943.0000	72.9385
1942.0000	77.2607
1941.0000	75.5987
1940.0000	75.2386
1939.0000	76.0853
1938.0000	74.5323
1937.0000	75.1898
1936.0000	73.2376
1935.0000	71.7912
1934.0000	74.0506
1933.0000	71.732
1932.0000	74.099
1931.0000	71.0603
1930.0000	72.6112
1929.0000	75.4466
1928.0000	72.7872
1927.0000	75.8857
1926.0000	71.9621
1925.0000	75.1997
1924.0000	75.1683
1923.0000	73.5707
1922.0000	80.4363
1921.0000	77.8828
1920.0000	80.431
1919.0000	79.2164
1918.0000	74.0735
1917.0000	74.6371
1916.0000	73.4989
1915.0000	75.2575
1914.0000	74.8211
1913.0000	72.9788
1912.0000	75.8694
1911.0000	74.985
1910.0000	78.9329
1909.0000	78.4279
1908.0000	77.5218
1907.0000	77.3598
1906.0000	75.9619
1905.0000	77.2734
1904.0000	74.1592
1903.0000	77.4476
1902.0000	78.0393
1901.0000	80.5941
1900.0000	81.847
1899.0000	78.3116
1898.0000	81.0938
1897.0000	79.864
1896.0000	82.1078
1895.0000	80.5737
1894.0000	80.8764
1893.0000	84.1254
1892.0000	80.9927
1891.0000	82.6077
1890.0000	80.3788
1889.0000	85.5213
1888.0000	82.1571
1887.0000	82.3535
1886.0000	83.0001
1885.0000	82.3561
1884.0000	84.5665
1883.0000	82.3216
1882.0000	86.4234
1881.0000	85.6897
1880.0000	88.0333
1879.0000	86.9056
1878.0000	85.6645
1877.0000	87.4114
1876.0000	86.7466
1875.0000	86.1989
1874.0000	86.2802
1873.0000	87.056
1872.0000	85.6678
1871.0000	84.8861
1870.0000	84.8846
1869.0000	86.6474
1868.0000	87.4391
1867.0000	88.6732
1866.0000	89.1335
1865.0000	88.8596
1864.0000	88.3151
1863.0000	84.4433
1862.0000	84.2036
1861.0000	84.6332
1860.0000	82.9359
1859.0000	87.1107
1858.0000	86.203
1857.0000	89.5151
1856.0000	83.2169
1855.0000	84.2971
1854.0000	81.2758
1853.0000	84.4655
1852.0000	83.9358
1851.0000	85.5948
1850.0000	85.4426
1849.0000	85.6348
1848.0000	85.6398
1847.0000	84.4302
1846.0000	83.8091
1845.0000	80.2351
1844.0000	81.008
1843.0000	79.8953
1842.0000	82.646
1841.0000	82.102
1840.0000	81.8184
1839.0000	81.6074
1838.0000	79.4933
1837.0000	80.582
1836.0000	76.2266
1835.0000	78.1774
1834.0000	75.4378
1833.0000	79.2332
1832.0000	77.6142
1831.0000	79.12
1830.0000	77.0416
1829.0000	75.8973
1828.0000	74.8711
1827.0000	72.7811
1826.0000	75.7006
1825.0000	74.2713
1824.0000	78.035
1823.0000	74.3393
1822.0000	77.8365
1821.0000	75.132
1820.0000	76.543
1819.0000	74.1319
1818.0000	73.669
1817.0000	73.5186
1816.0000	75.5683
1815.0000	74.5607
1814.0000	71.91
1813.0000	74.6269
1812.0000	72.3739
1811.0000	75.0732
1810.0000	71.8153
1809.0000	74.0112
1808.0000	71.2186
1807.0000	74.7897
1806.0000	71.2566
1805.0000	74.2319
1804.0000	71.3491
1803.0000	75.2169
1802.0000	73.2754
1801.0000	75.6604
1800.0000	73.2828
1799.0000	72.1815
1798.0000	70.4549
1797.0000	71.715
1796.0000	73.3135
1795.0000	74.378
1794.0000	75.9829
1793.0000	75.9471
1792.0000	77.2326
1791.0000	75.2484
1790.0000	77.0571
1789.0000	75.891
1788.0000	79.0232
1787.0000	76.7571
1786.0000	77.7707
1785.0000	74.9058
1784.0000	77.5972
1783.0000	74.664
1782.0000	77.897
1781.0000	75.49
1780.0000	79.742
1779.0000	78.1271
1778.0000	80.4598
1777.0000	78.0086
1776.0000	79.8179
1775.0000	78.3249
1774.0000	81.1445
1773.0000	80.1115
1772.0000	82.9289
1771.0000	81.184
1770.0000	83.0825
1769.0000	81.1775
1768.0000	82.6915
1767.0000	82.9501
1766.0000	84.3102
1765.0000	83.4567
1764.0000	84.6717
1763.0000	84.272
1762.0000	85.2904
1761.0000	85.4135
1760.0000	85.7829
1759.0000	86.0423
1758.0000	86.7771
1757.0000	86.2433
1756.0000	88.4484
1755.0000	87.3282
1754.0000	86.938
1753.0000	84.5456
1752.0000	85.4918
1751.0000	85.9689
1750.0000	88.6599
1749.0000	87.1579
1748.0000	87.3122
1747.0000	84.9986
1746.0000	86.0297
1745.0000	85.0487
1744.0000	86.6161
1743.0000	86.2782
1742.0000	88.3109
1741.0000	85.7958
1740.0000	86.6152
1739.0000	85.0339
1738.0000	85.9866
1737.0000	83.5945
1736.0000	85.8585
1735.0000	84.0408
1734.0000	85.6931
1733.0000	84.1254
1732.0000	85.6998
1731.0000	83.1547
1730.0000	83.688
1729.0000	81.9198
1728.0000	82.4774
1727.0000	80.6001
1726.0000	81.9423
1725.0000	81.9436
1724.0000	81.4211
1723.0000	79.0648
1722.0000	79.7968
1721.0000	79.3154
1720.0000	79.8617
1719.0000	77.9198
1718.0000	77.5157
1717.0000	76.0887
1716.0000	76.2584
1715.0000	77.9195
1714.0000	76.761
1713.0000	78.9508
1712.0000	77.027
1711.0000	78.4557
1710.0000	74.9642
1709.0000	74.8795
1708.0000	74.4635
1707.0000	76.9003
1706.0000	74.8227
1705.0000	75.0035
1704.0000	72.4803
1703.0000	74.5004
1702.0000	72.661
1701.0000	73.1359
1700.0000	72.8642
1699.0000	74.0898
1698.0000	73.6162
1697.0000	72.1013
1696.0000	71.9988
1695.0000	71.4829
1694.0000	73.3484
1693.0000	71.8869
1692.0000	72.8866
1691.0000	71.7608
1690.0000	74.8335
1689.0000	74.4449
1688.0000	74.2591
1687.0000	71.8178
1686.0000	72.6109
1685.0000	72.8058
1684.0000	73.833
1683.0000	74.3873
1682.0000	74.3599
1681.0000	74.9571
1680.0000	74.3331
1679.0000	75.1077
1678.0000	74.2791
1677.0000	75.4156
1676.0000	74.0549
1675.0000	77.201
1674.0000	76.8445
1673.0000	79.8197
1672.0000	78.2323
1671.0000	78.3362
1670.0000	76.9215
1669.0000	76.5863
1668.0000	78.3942
1667.0000	78.4108
1666.0000	81.0606
1665.0000	80.4966
1664.0000	82.1255
1663.0000	80.1276
1662.0000	80.0878
1661.0000	80.3179
1660.0000	82.086
1659.0000	82.7874
1658.0000	82.9367
1657.0000	82.8533
1656.0000	82.9876
1655.0000	82.9514
1654.0000	83.2438
1653.0000	84.1754
1652.0000	83.6044
1651.0000	84.3599
1650.0000	86.4415
1649.0000	86.5588
1648.0000	87.3187
1647.0000	85.9875
1646.0000	87.2209
1645.0000	87.1902
1644.0000	85.7684
1643.0000	84.7297
1642.0000	85.1284
1641.0000	86.4151
1640.0000	86.8544
1639.0000	87.6731
1638.0000	87.6659
1637.0000	86.014
1636.0000	85.6739
1635.0000	84.6065
1634.0000	86.1026
1633.0000	85.5067
1632.0000	85.5467
1631.0000	84.9352
1630.0000	84.0755
1629.0000	85.5117
1628.0000	85.8364
1627.0000	85.6975
1626.0000	84.7203
1625.0000	82.7399
1624.0000	82.2132
1623.0000	80.8804
1622.0000	81.6232
1621.0000	81.2399
1620.0000	80.6866
1619.0000	80.1238
1618.0000	80.3625
1617.0000	79.9479
1616.0000	79.6044
1615.0000	78.1687
1614.0000	77.7095
1613.0000	77.7242
1612.0000	76.9386
1611.0000	76.1393
1610.0000	75.9872
1609.0000	75.6748
1608.0000	75.3116
1607.0000	74.9039
1606.0000	74.7272
1605.0000	75.8277
1604.0000	76.4793
1603.0000	75.5142
1602.0000	75.5826
1601.0000	75.5195
1600.0000	74.2364
1599.0000	72.8417
1598.0000	72.4137
1597.0000	71.8037
1596.0000	70.9689
1595.0000	70.5684
1594.0000	71.3612
1593.0000	71.154
1592.0000	71.3663
1591.0000	71.7209
1590.0000	71.6847
1589.0000	72.7454
1588.0000	72.1663
1587.0000	72.8419
1586.0000	72.2822
1585.0000	73.0524
1584.0000	74.2427
1583.0000	74.6915
1582.0000	74.6059
1581.0000	75.4476
1580.0000	75.2988
1579.0000	76.6167
1578.0000	75.5617
1577.0000	76.6468
1576.0000	76.1348
1575.0000	77.1461
1574.0000	77.6811
1573.0000	78.4595
1572.0000	78.2768
1571.0000	78.5933
1570.0000	79.634
1569.0000	79.7994
1568.0000	79.7735
1567.0000	80.5211
1566.0000	81.2402
1565.0000	81.5279
1564.0000	82.2147
1563.0000	82.7157
1562.0000	83.1955
1561.0000	82.4816
1560.0000	83.5606
1559.0000	84.0766
1558.0000	84.6569
1557.0000	84.1954
1556.0000	84.2788
1555.0000	84.6929
1554.0000	84.9541
1553.0000	85.3526
1552.0000	86.2348
1551.0000	87.0938
1550.0000	87.4228
1549.0000	86.642
1548.0000	86.2056
1547.0000	87.2638
1546.0000	86.7775
1545.0000	86.7
1544.0000	86.0604
1543.0000	86.6326
1542.0000	86.2896
1541.0000	86.8212
1540.0000	85.7419
1539.0000	84.2722
1538.0000	83.0531
1537.0000	82.4329
1536.0000	83.1024
1535.0000	83.3775
1534.0000	82.2308
1533.0000	82.0981
1532.0000	82.9401
1531.0000	82.4112
1530.0000	82.6805
1529.0000	80.6581
1528.0000	80.2848
1527.0000	78.5863
1526.0000	77.8257
1525.0000	77.0727
1524.0000	77.1921
1523.0000	76.261
1522.0000	77.0882
1521.0000	77.3799
1520.0000	77.6421
1519.0000	77.0641
1518.0000	75.2601
1517.0000	75.0384
1516.0000	74.9292
1515.0000	75.508
1514.0000	73.5822
1513.0000	73.173
1512.0000	73.5662
1511.0000	73.3153
1510.0000	73.0153
1509.0000	74.2175
1508.0000	74.3145
1507.0000	74.2861
1506.0000	73.0015
1505.0000	71.1234
1504.0000	71.0866
1503.0000	72.2031
1502.0000	71.167
1501.0000	70.6417
1500.0000	69.4364
1499.0000	70.7463
1498.0000	72.5823
1497.0000	74.653
1496.0000	72.957
1495.0000	73.0802
1494.0000	73.5181
1493.0000	73.6298
1492.0000	73.6756
1491.0000	75.3885
1490.0000	76.4832
1489.0000	76.6066
1488.0000	76.2826
1487.0000	75.6214
1486.0000	75.6463
1485.0000	77.0712
1484.0000	78.1041
1483.0000	79.0065
1482.0000	80.3395
1481.0000	80.7418
1480.0000	81.6109
1479.0000	80.9831
1478.0000	82.9789
1477.0000	82.4803
1476.0000	84.5552
1475.0000	83.9183
1474.0000	85.3494
1473.0000	83.2913
1472.0000	84.1148
1471.0000	84.5535
1470.0000	85.1349
1469.0000	85.5669
1468.0000	86.0043
1467.0000	85.5766
1466.0000	85.2818
1465.0000	84.9363
1464.0000	86.0262
1463.0000	86.46
1462.0000	85.6317
1461.0000	85.6095
1460.0000	84.8415
1459.0000	85.4053
1458.0000	84.6735
1457.0000	84.7832
1456.0000	84.7092
1455.0000	84.2391
1454.0000	83.3386
1453.0000	83.6402
1452.0000	82.9155
1451.0000	82.4751
1450.0000	81.2503
1449.0000	81.3905
1448.0000	80.9428
1447.0000	80.0052
1446.0000	79.7656
1445.0000	79.4877
1444.0000	79.0278
1443.0000	77.9606
1442.0000	76.9154
1441.0000	76.2138
1440.0000	74.8245
1439.0000	74.2787
1438.0000	75.2696
1437.0000	76.5906
1436.0000	74.8822
1435.0000	74.5504
1434.0000	73.9278
1433.0000	74.3158
1432.0000	72.6135
1431.0000	71.5039
1430.0000	71.5038
1429.0000	70.273
1428.0000	69.9658
1427.0000	70.33
1426.0000	71.6705
1425.0000	72.6497
1424.0000	71.7284
1423.0000	71.4974
1422.0000	72.7471
1421.0000	73.8655
1420.0000	72.865
1419.0000	71.4608
1418.0000	72.497
1417.0000	72.7868
1416.0000	73.2426
1415.0000	73.1322
1414.0000	73.9422
1413.0000	74.5309
1412.0000	75.6311
1411.0000	75.4799
1410.0000	76.2381
1409.0000	77.5772
1408.0000	77.9335
1407.0000	77.1195
1406.0000	76.9294
1405.0000	77.4583
1404.0000	78.1207
1403.0000	79.242
1402.0000	80.5939
1401.0000	81.5351
1400.0000	83.4492
1399.0000	83.0441
1398.0000	83.1029
1397.0000	82.6551
1396.0000	83.6063
1395.0000	83.5675
1394.0000	84.2998
1393.0000	85.3955
1392.0000	85.4108
1391.0000	85.9779
1390.0000	85.2536
1389.0000	86.8999
1388.0000	85.9778
1387.0000	86.103
1386.0000	85.6307
1385.0000	85.5516
1384.0000	85.1421
1383.0000	84.6822
1382.0000	84.626
1381.0000	84.1492
1380.0000	83.1375
1379.0000	82.0379
1378.0000	81.8449
1377.0000	81.6722
1376.0000	81.6856
1375.0000	80.1091
1374.0000	78.2794
1373.0000	78.0046
1372.0000	76.7586
1371.0000	77.1778
1370.0000	74.8569
1369.0000	76.8964
1368.0000	76.7601
1367.0000	78.2816
1366.0000	76.2196
1365.0000	75.4991
1364.0000	73.4287
1363.0000	72.841
1362.0000	72.5353
1361.0000	71.4674
1360.0000	72.7676
1359.0000	73.2734
1358.0000	73.7343
1357.0000	73.8019
1356.0000	72.69
1355.0000	72.7975
1354.0000	70.8226
1353.0000	71.6623
1352.0000	70.9648
1351.0000	71.9947
1350.0000	72.0958
1349.0000	72.9254
1348.0000	73.2724
1347.0000	73.4243
1346.0000	73.0838
1345.0000	72.5273
1344.0000	72.2713
1343.0000	73.5967
1342.0000	74.6559
1341.0000	76.1515
1340.0000	77.5999
1339.0000	78.8891
1338.0000	78.2813
1337.0000	78.1833
1336.0000	77.8611
1335.0000	79.3119
1334.0000	80.1235
1333.0000	81.0844
1332.0000	82.0262
1331.0000	82.5636
1330.0000	82.7557
1329.0000	83.2724
1328.0000	83.2642
1327.0000	83.1574
1326.0000	84.4286
1325.0000	84.5267
1324.0000	85.4944
1323.0000	84.7603
1322.0000	85.2153
1321.0000	84.0857
1320.0000	84.9568
1319.0000	85.183
1318.0000	84.7056
1317.0000	84.2962
1316.0000	83.5995
1315.0000	83.5532
1314.0000	83.9362
1313.0000	82.9287
1312.0000	82.7066
1311.0000	81.7156
1310.0000	81.4369
1309.0000	80.4596
1308.0000	80.6502
1307.0000	78.6927
1306.0000	77.2192
1305.0000	76.3981
1304.0000	76.358
1303.0000	76.694
1302.0000	76.1091
1301.0000	74.1386
1300.0000	73.3302
1299.0000	72.7983
1298.0000	72.8823
1297.0000	72.6791
1296.0000	72.7587
1295.0000	72.2491
1294.0000	71.7759
1293.0000	71.5941
1292.0000	72.1649
1291.0000	72.2002
1290.0000	72.2469
1289.0000	71.7627
1288.0000	71.4636
1287.0000	71.0177
1286.0000	71.2018
1285.0000	70.8668
1284.0000	70.5347
1283.0000	71.5456
1282.0000	72.3441
1281.0000	72.9071
1280.0000	73.6685
1279.0000	73.7795
1278.0000	74.8686
1277.0000	74.676
1276.0000	75.6223
1275.0000	76.7101
1274.0000	77.0496
1273.0000	78.3214
1272.0000	79.1493
1271.0000	80.0292
1270.0000	80.8681
1269.0000	81.4559
1268.0000	81.6964
1267.0000	82.0381
1266.0000	82.8537
1265.0000	83.5064
1264.0000	84.6306
1263.0000	85.0122
1262.0000	85.2853
1261.0000	84.9683
1260.0000	84.7571
1259.0000	84.6292
1258.0000	85.1776
1257.0000	85.4246
1256.0000	85.7193
1255.0000	85.9014
1254.0000	84.8576
1253.0000	83.9567
1252.0000	82.0739
1251.0000	81.5298
1250.0000	81.5833
1249.0000	79.7638
1248.0000	79.3879
1247.0000	78.1209
1246.0000	78.3198
1245.0000	77.1603
1244.0000	76.7585
1243.0000	76.5375
1242.0000	75.7033
1241.0000	75.1489
1240.0000	74.068
1239.0000	74.0157
1238.0000	73.5011
1237.0000	73.0795
1236.0000	72.0061
1235.0000	71.8062
1234.0000	71.2424
1233.0000	71.6638
1232.0000	71.523
1231.0000	70.5019
1230.0000	70.7442
1229.0000	70.1342
1228.0000	70.9053
1227.0000	70.6527
1226.0000	70.8027
1225.0000	71.2326
1224.0000	72.066
1223.0000	72.4052
1222.0000	73.912
1221.0000	75.0942
1220.0000	75.9108
1219.0000	76.409
1218.0000	76.1727
1217.0000	77.304
1216.0000	77.9873
1215.0000	78.1964
1214.0000	79.2072
1213.0000	79.8796
1212.0000	81.137
1211.0000	81.7742
1210.0000	82.948
1209.0000	83.3495
1208.0000	83.4388
1207.0000	84.0615
1206.0000	84.3201
1205.0000	84.955
1204.0000	84.7044
1203.0000	84.1678
1202.0000	84.5024
1201.0000	84.3176
1200.0000	83.6011
1199.0000	83.584
1198.0000	82.9537
1197.0000	82.7927
1196.0000	83.0461
1195.0000	82.3038
1194.0000	81.6726
1193.0000	79.9491
1192.0000	77.7467
1191.0000	77.1496
1190.0000	76.2517
1189.0000	75.7755
1188.0000	74.6045
1187.0000	73.9233
1186.0000	72.7334
1185.0000	72.6666
1184.0000	72.867
1183.0000	73.2352
1182.0000	72.2526
1181.0000	71.9461
1180.0000	70.8258
1179.0000	71.2962
1178.0000	70.0787
1177.0000	70.695
1176.0000	70.7731
1175.0000	70.7247
1174.0000	70.8376
1173.0000	70.9521
1172.0000	71.1954
1171.0000	72.2277
1170.0000	72.7511
1169.0000	74.7099
1168.0000	75.6922
1167.0000	77.1
1166.0000	77.4647
1165.0000	77.5963
1164.0000	79.1648
1163.0000	79.1927
1162.0000	79.5772
1161.0000	80.5954
1160.0000	80.9985
1159.0000	82.0886
1158.0000	82.4845
1157.0000	82.9568
1156.0000	83.1403
1155.0000	83.7538
1154.0000	83.5175
1153.0000	83.7515
1152.0000	83.3187
1151.0000	84.5527
1150.0000	85.0621
1149.0000	85.1412
1148.0000	84.3202
1147.0000	82.6645
1146.0000	82.0618
1145.0000	80.7201
1144.0000	80.4697
1143.0000	78.1391
1142.0000	77.7546
1141.0000	76.994
1140.0000	77.2276
1139.0000	75.2403
1138.0000	74.24
1137.0000	73.1194
1136.0000	72.6633
1135.0000	72.4354
1134.0000	71.5139
1133.0000	71.2617
1132.0000	70.7494
1131.0000	69.8742
1130.0000	69.2212
1129.0000	69.0256
1128.0000	70.477
1127.0000	70.6559
1126.0000	70.4959
1125.0000	70.526
1124.0000	70.894
1123.0000	71.0885
1122.0000	72.1661
1121.0000	73.228
1120.0000	74.2662
1119.0000	75.2496
1118.0000	76.1633
1117.0000	77.5015
1116.0000	77.8919
1115.0000	79.3457
1114.0000	80.6972
1113.0000	81.2192
1112.0000	81.9603
1111.0000	82.3899
1110.0000	83.069
1109.0000	83.884
1108.0000	83.3396
1107.0000	83.7091
1106.0000	84.1123
1105.0000	85.3607
1104.0000	85.6418
1103.0000	84.5433
1102.0000	83.6033
1101.0000	83.0317
1100.0000	81.9601
1099.0000	80.9596
1098.0000	79.2302
1097.0000	79.0425
1096.0000	77.9623
1095.0000	76.947
1094.0000	75.9851
1093.0000	75.1411
1092.0000	74.347
1091.0000	73.2782
1090.0000	72.0087
1089.0000	70.7418
1088.0000	70.2115
1087.0000	70.2455
1086.0000	69.6873
1085.0000	70.0685
1084.0000	69.4723
1083.0000	70.1777
1082.0000	70.5919
1081.0000	71.3978
1080.0000	71.6086
1079.0000	71.7398
1078.0000	72.1335
1077.0000	72.5221
1076.0000	73.5319
1075.0000	74.2278
1074.0000	75.4398
1073.0000	76.6153
1072.0000	77.5988
1071.0000	78.788
1070.0000	80.6462
1069.0000	82.2467
1068.0000	82.6236
1067.0000	83.6608
1066.0000	82.8491
1065.0000	84.0345
1064.0000	83.1424
1063.0000	84.2033
1062.0000	83.2882
1061.0000	82.8579
1060.0000	82.6513
1059.0000	82.7756
1058.0000	82.6408
1057.0000	81.6637
1056.0000	80.1831
1055.0000	79.0351
1054.0000	77.3181
1053.0000	75.5223
1052.0000	75.0688
1051.0000	73.872
1050.0000	73.9326
1049.0000	73.5305
1048.0000	72.635
1047.0000	72.6333
1046.0000	71.0385
1045.0000	71.0325
1044.0000	70.5331
1043.0000	70.8981
1042.0000	70.6848
1041.0000	70.5606
1040.0000	70.9253
1039.0000	71.0536
1038.0000	72.6201
1037.0000	72.9803
1036.0000	73.9317
1035.0000	74.6908
1034.0000	75.7392
1033.0000	77.0716
1032.0000	78.4554
1031.0000	80.1114
1030.0000	81.0724
1029.0000	80.8523
1028.0000	81.4754
1027.0000	82.4956
1026.0000	83.4431
1025.0000	83.7935
1024.0000	84.1392
1023.0000	83.6227
1022.0000	84.6891
1021.0000	84.4309
1020.0000	82.2866
1019.0000	81.1624
1018.0000	79.6142
1017.0000	79.4983
1016.0000	78.2955
1015.0000	77.8333
1014.0000	76.591
1013.0000	76.3028
1012.0000	75.3409
1011.0000	74.0133
1010.0000	73.1888
1009.0000	71.9229
1008.0000	71.3014
1007.0000	71.8221
1006.0000	71.0909
1005.0000	70.4215
1004.0000	70.5346
1003.0000	70.7829
1002.0000	71.9117
1001.0000	71.4913
1000.0000	71.8506
999.0000	72.8255
998.0000	73.7928
997.0000	74.8039
996.0000	75.4615
995.0000	75.5689
994.0000	77.2205
993.0000	78.9471
992.0000	80.963
991.0000	82.2241
990.0000	83.8462
989.0000	82.9845
988.0000	84.8703
987.0000	84.6893
986.0000	84.8637
985.0000	84.115
984.0000	84.4629
983.0000	84.0993
982.0000	83.3905
981.0000	81.7274
980.0000	79.5424
979.0000	77.8112
978.0000	76.7212
977.0000	76.1346
976.0000	75.2213
975.0000	74.9661
974.0000	73.5683
973.0000	72.2166
972.0000	72.025
971.0000	71.1032
970.0000	70.6207
969.0000	70.8735
968.0000	71.0864
967.0000	71.2522
966.0000	71.3463
965.0000	72.6197
964.0000	74.5164
963.0000	75.1827
962.0000	76.5932
961.0000	77.8092
960.0000	79.1754
959.0000	80.4102
958.0000	81.1453
957.0000	82.5579
956.0000	81.3246
955.0000	82.4712
954.0000	83.684
953.0000	84.6016
952.0000	83.1391
951.0000	82.4122
950.0000	82.3453
949.0000	83.2315
948.0000	83.1939
947.0000	83.5678
946.0000	81.5792
945.0000	78.0134
944.0000	75.3273
943.0000	74.3662
942.0000	73.817
941.0000	72.8271
940.0000	72.6058
939.0000	71.8237
938.0000	72.9209
937.0000	71.5268
936.0000	70.1965
935.0000	69.0292
934.0000	70.517
933.0000	71.8256
932.0000	72.604
931.0000	73.1577
930.0000	75.4866
929.0000	77.3825
928.0000	79.3157
927.0000	80.5743
926.0000	82.0396
925.0000	83.5132
924.0000	84.3051
923.0000	84.0831
922.0000	82.7983
921.0000	83.3215
920.0000	83.7398
919.0000	84.6497
918.0000	84.3975
917.0000	81.8064
916.0000	79.9162
915.0000	80.6686
914.0000	80.3791
913.0000	79.9681
912.0000	76.9652
911.0000	75.8699
910.0000	74.5254
909.0000	74.0651
908.0000	73.276
907.0000	72.7385
906.0000	73.229
905.0000	71.2115
904.0000	72.0065
903.0000	72.321
902.0000	74.5963
901.0000	76.2222
900.0000	73.1154
899.0000	73.7902
898.0000	74.9157
897.0000	76.3134
896.0000	77.9047
895.0000	79.2581
894.0000	80.6932
893.0000	81.6598
892.0000	82.9737
891.0000	83.5188
890.0000	83.7238
889.0000	83.7482
888.0000	83.4427
887.0000	82.9099
886.0000	81.9605
885.0000	80.8836
884.0000	79.6702
883.0000	78.2541
882.0000	76.8318
881.0000	75.4481
880.0000	74.4132
879.0000	73.3662
878.0000	72.3354
877.0000	71.6296
876.0000	71.345
875.0000	71.2798
874.0000	71.514
873.0000	71.8781
872.0000	72.5946
871.0000	73.5919
870.0000	74.9384
869.0000	76.3244
868.0000	77.8813
867.0000	79.3978
866.0000	80.9205
865.0000	82.2267
864.0000	83.251
863.0000	83.9292
862.0000	84.2647
861.0000	84.2433
860.0000	83.8132
859.0000	83.0597
858.0000	81.9309
857.0000	80.5868
856.0000	79.0548
855.0000	77.4779
854.0000	75.9314
853.0000	74.4918
852.0000	73.2915
851.0000	72.3742
850.0000	71.7521
849.0000	71.4704
848.0000	71.4876
847.0000	71.867
846.0000	72.5279
845.0000	73.507
844.0000	74.6862
843.0000	76.1492
842.0000	77.7113
841.0000	79.4087
840.0000	80.9439
839.0000	82.3605
838.0000	83.4987
837.0000	84.2441
836.0000	84.5089
835.0000	84.3524
834.0000	83.7686
833.0000	82.7888
832.0000	81.4972
831.0000	79.9625
830.0000	78.3373
829.0000	76.77
828.0000	75.2755
827.0000	73.9923
826.0000	72.9323
825.0000	72.2091
824.0000	71.835
823.0000	71.8287
822.0000	72.1754
821.0000	72.9009
820.0000	73.9627
819.0000	75.3337
818.0000	76.9266
817.0000	78.6109
816.0000	80.2668
815.0000	81.7912
814.0000	83.1286
813.0000	84.0468
812.0000	84.5657
811.0000	84.5732
810.0000	84.0823
809.0000	83.1174
808.0000	81.7609
807.0000	80.2021
806.0000	78.5111
805.0000	76.8489
804.0000	75.2762
803.0000	73.9747
802.0000	72.969
801.0000	72.3687
800.0000	72.175
799.0000	72.3816
798.0000	73.0015
797.0000	74.0028
796.0000	75.3629
795.0000	76.9668
794.0000	78.71
793.0000	80.4724
792.0000	82.0773
791.0000	83.4102
790.0000	84.2996
789.0000	84.6679
788.0000	84.4626
787.0000	83.7818
786.0000	82.5755
785.0000	81.0397
784.0000	79.2943
783.0000	77.5211
782.0000	75.8268
781.0000	74.3981
780.0000	73.2764
779.0000	72.5711
778.0000	72.3049
777.0000	72.5081
776.0000	73.1607
775.0000	74.2402
774.0000	75.688
773.0000	77.3834
772.0000	79.2241
771.0000	81.019
770.0000	82.6061
769.0000	83.8189
768.0000	84.5144
767.0000	84.6378
766.0000	84.1533
765.0000	83.1178
764.0000	81.6344
763.0000	79.866
762.0000	77.9863
761.0000	76.1964
760.0000	74.6361
759.0000	73.4415
758.0000	72.6841
757.0000	72.4676
756.0000	72.7619
755.0000	73.5481
754.0000	74.7905
753.0000	76.3998
752.0000	78.2685
751.0000	80.1738
750.0000	81.9706
749.0000	83.4153
748.0000	84.3257
747.0000	84.5971
746.0000	84.1952
745.0000	83.1396
744.0000	81.5404
743.0000	79.6522
742.0000	77.6988
741.0000	75.8603
740.0000	74.2793
739.0000	73.1696
738.0000	72.5728
737.0000	72.5711
736.0000	73.1348
735.0000	74.2169
734.0000	75.7411
733.0000	77.6021
732.0000	79.6165
731.0000	81.5421
730.0000	83.1223
729.0000	84.1573
728.0000	84.4979
727.0000	84.0842
726.0000	82.9804
725.0000	81.3309
724.0000	79.3386
723.0000	77.2743
722.0000	75.3643
721.0000	73.8485
720.0000	72.8099
719.0000	72.3945
718.0000	72.6036
717.0000	73.4374
716.0000	74.8032
715.0000	76.6069
714.0000	78.6614
713.0000	80.7297
712.0000	82.5311
711.0000	83.7773
710.0000	84.2675
709.0000	83.8994
708.0000	82.7655
707.0000	81.0302
706.0000	78.9461
705.0000	76.8251
704.0000	74.9043
703.0000	73.4205
702.0000	72.5217
701.0000	72.3183
700.0000	72.8455
699.0000	74.0322
698.0000	75.7725
697.0000	77.8732
696.0000	80.0477
695.0000	82.0043
694.0000	83.3919
693.0000	84.0067
692.0000	83.6932
691.0000	82.5157
690.0000	80.6417
689.0000	78.4049
688.0000	76.1461
687.0000	74.1963
686.0000	72.783
685.0000	72.0672
684.0000	72.1199
683.0000	72.9341
682.0000	74.436
681.0000	76.4758
680.0000	78.7641
679.0000	80.9396
678.0000	82.6433
677.0000	83.5345
676.0000	83.4453
675.0000	82.3855
674.0000	80.5393
673.0000	78.2357
672.0000	75.8887
671.0000	73.8383
670.0000	72.3761
669.0000	71.6548
668.0000	71.8058
667.0000	72.8026
666.0000	74.5415
665.0000	76.7709
664.0000	79.1757
663.0000	81.3016
662.0000	82.7405
661.0000	83.1765
660.0000	82.5122
659.0000	80.889
658.0000	78.5964
657.0000	76.1212
656.0000	73.8651
655.0000	72.1887
654.0000	71.3582
653.0000	71.4918
652.0000	72.5722
651.0000	74.4469
650.0000	76.8267
649.0000	79.2998
648.0000	81.3775
647.0000	82.5779
646.0000	82.625
645.0000	81.4771
644.0000	79.4041
643.0000	76.8443
642.0000	74.3101
641.0000	72.27
640.0000	71.0526
639.0000	70.8783
638.0000	71.7542
637.0000	73.5622
636.0000	75.997
635.0000	78.6035
634.0000	80.8139
633.0000	82.0923
632.0000	82.1301
631.0000	80.8886
630.0000	78.6611
629.0000	75.9863
628.0000	73.4098
627.0000	71.4516
626.0000	70.4651
625.0000	70.6058
624.0000	71.8722
623.0000	74.0406
622.0000	76.7274
621.0000	79.3268
620.0000	81.1923
619.0000	81.8142
618.0000	81.0231
617.0000	79.0389
616.0000	76.3478
615.0000	73.5818
614.0000	71.3679
613.0000	70.1586
612.0000	70.2124
611.0000	71.5117
610.0000	73.8102
609.0000	76.6005
608.0000	79.204
607.0000	80.9157
606.0000	81.1839
605.0000	79.923
604.0000	77.4995
603.0000	74.5875
602.0000	71.9249
601.0000	70.1412
600.0000	69.6443
599.0000	70.517
598.0000	72.6221
597.0000	75.4493
596.0000	78.2906
595.0000	80.3063
594.0000	80.8064
593.0000	79.6334
592.0000	77.1475
591.0000	74.1173
590.0000	71.3979
589.0000	69.6842
588.0000	69.363
587.0000	70.5315
586.0000	72.9171
585.0000	75.9271
584.0000	78.6759
583.0000	80.2407
582.0000	80.098
581.0000	78.2601
580.0000	75.3489
579.0000	72.2946
578.0000	70.0074
577.0000	69.089
576.0000	69.7343
575.0000	71.7956
574.0000	74.7604
573.0000	77.73
572.0000	79.6994
571.0000	79.8677
570.0000	78.1793
569.0000	75.232
568.0000	72.1023
567.0000	69.7586
566.0000	68.9008
565.0000	69.7717
564.0000	72.137
563.0000	75.306
562.0000	78.1912
561.0000	79.6853
560.0000	79.1503
559.0000	76.7961
558.0000	73.5741
557.0000	70.6524
556.0000	69.0315
555.0000	69.2274
554.0000	71.2173
553.0000	74.3495
552.0000	77.4721
551.0000	79.3128
550.0000	79.025
549.0000	76.7501
548.0000	73.4666
547.0000	70.5079
546.0000	68.9796
545.0000	69.4146
544.0000	71.6897
543.0000	74.9692
542.0000	77.9451
541.0000	79.2561
540.0000	78.2878
539.0000	75.4846
538.0000	72.1324
537.0000	69.6315
536.0000	68.9761
535.0000	70.4145
534.0000	73.4156
533.0000	76.7365
532.0000	78.8549
531.0000	78.7182
530.0000	76.3817
529.0000	73.0266
528.0000	70.2097
527.0000	69.1024
526.0000	70.2067
525.0000	73.0899
524.0000	76.4814
523.0000	78.6943
522.0000	78.5087
521.0000	76.0525
520.0000	72.6233
519.0000	69.982
518.0000	69.3397
517.0000	71.0054
516.0000	74.2337
515.0000	77.4319
514.0000	78.8365
513.0000	77.6346
512.0000	74.5291
511.0000	71.274
510.0000	69.5976
509.0000	70.3763
508.0000	73.2424
507.0000	76.6688
506.0000	78.6197
505.0000	77.9038
504.0000	74.9846
503.0000	71.6849
502.0000	69.909
501.0000	70.6899
500.0000	73.6108
499.0000	76.9673
498.0000	78.6203
497.0000	77.4645
496.0000	74.2886
495.0000	71.1838
494.0000	70.0859
493.0000	71.6482
492.0000	74.9556
491.0000	77.8275
490.0000	78.305
489.0000	76.0108
488.0000	72.6128
487.0000	70.4524
486.0000	70.9473
485.0000	73.7825
484.0000	77.0313
483.0000	78.3475
482.0000	76.7316
481.0000	73.4192
480.0000	70.8707
479.0000	70.9179
478.0000	73.5328
477.0000	76.8159
476.0000	78.2568
475.0000	76.6749
474.0000	73.3451
473.0000	70.9267
472.0000	71.2926
471.0000	74.1642
470.0000	77.2323
469.0000	77.9035
468.0000	75.5838
467.0000	72.3036
466.0000	70.8011
465.0000	72.321
464.0000	75.5455
463.0000	77.6364
462.0000	76.6377
461.0000	73.4639
460.0000	71.005
459.0000	71.462
458.0000	74.3614
457.0000	76.9651
456.0000	76.6731
455.0000	73.7444
454.0000	71.0496
453.0000	71.2388
452.0000	74.0224
451.0000	76.5097
450.0000	75.9975
449.0000	72.9781
448.0000	70.6205
447.0000	71.3496
446.0000	74.2565
445.0000	76.0948
444.0000	74.6819
443.0000	71.564
442.0000	70.1785
441.0000	71.9639
440.0000	74.7244
439.0000	75.1118
438.0000	72.5434
437.0000	70.0265
436.0000	70.4488
435.0000	73.1441
434.0000	74.5928
433.0000	72.8348
432.0000	69.9871
431.0000	69.6041
430.0000	71.9591
429.0000	73.7722
428.0000	72.4432
427.0000	69.6533
426.0000	69.0769
425.0000	71.258
424.0000	72.8982
423.0000	71.4524
422.0000	68.8706
421.0000	68.7324
420.0000	70.9494
419.0000	71.8916
418.0000	69.9258
417.0000	67.9564
416.0000	68.7898
415.0000	70.7164
414.0000	70.3031
413.0000	68.0256
412.0000	67.4617
411.0000	69.1128
410.0000	69.6974
409.0000	67.9099
408.0000	66.7139
407.0000	67.8402
406.0000	68.6899
405.0000	67.3275
404.0000	66.1124
403.0000	66.8656
402.0000	67.4431
401.0000	66.1984
400.0000	65.2929
399.0000	65.9565
398.0000	66.1113
397.0000	64.8872
396.0000	64.3932
395.0000	64.7948
394.0000	64.3735
393.0000	63.5327
392.0000	63.3792
391.0000	63.2488
390.0000	62.6602
389.0000	62.1592
388.0000	61.7924
387.0000	61.4498
386.0000	60.9631
385.0000	60.2709
384.0000	60.0556
383.0000	59.6446
382.0000	58.6411
381.0000	58.5915
380.0000	57.8461
379.0000	56.746
378.0000	56.7833
377.0000	55.3006
376.0000	54.7157
375.0000	53.5943
374.0000	51.8444
373.0000	50.2011
372.0000	46.8718
371.0000	42.9084
370.0000	36.7395
369.0000	29.2374
368.0000	20.3851
367.0000	11.895
366.0000	5.44849
365.0000	1.77179
364.0000	0.356084
363.0000	0.0554592
362.0000	0.0251879
361.0000	0.0201071
360.0000	0.0170306
359.0000	0.0143435
358.0000	0.0130445
357.0000	0.0108521
356.0000	0.0102542
355.0000	0.00897227
354.0000	0.00887812
353.0000	0.00837453
352.0000	0.00827539
351.0000	0.00787867
350.0000	0.00678875
