TITLE	
DATA TYPE	ULTRAVIOLET SPECTRUM
ORIGIN	JASCO
OWNER	
DATE	19/10/09
TIME	12:00:25
SPECTROMETER/DATA SYSTEM	
RESOLUTION	
DELTAX	-1
XUNITS	NANOMETERS
YUNITS	TRANSMITTANCE
FIRSTX	 2500.0000
LASTX	  350.0000
NPOINTS	    2151
FIRSTY	    68.63149
MAXY	    80.56853
MINY	     0.00243
XYDATA
2500.0000	68.6315
2499.0000	68.4252
2498.0000	68.6127
2497.0000	68.7533
2496.0000	68.7867
2495.0000	68.0288
2494.0000	67.9064
2493.0000	68.6317
2492.0000	68.5648
2491.0000	67.9361
2490.0000	67.1924
2489.0000	67.4654
2488.0000	67.4132
2487.0000	67.169
2486.0000	67.0832
2485.0000	67.6548
2484.0000	67.5068
2483.0000	67.2252
2482.0000	66.8932
2481.0000	67.1797
2480.0000	67.6836
2479.0000	67.5523
2478.0000	67.1807
2477.0000	66.8098
2476.0000	66.4838
2475.0000	66.2998
2474.0000	66.3599
2473.0000	66.5583
2472.0000	66.9439
2471.0000	66.9308
2470.0000	66.6554
2469.0000	66.7798
2468.0000	66.6828
2467.0000	66.6667
2466.0000	66.4122
2465.0000	66.7047
2464.0000	66.8674
2463.0000	67.0676
2462.0000	67.0308
2461.0000	67.0519
2460.0000	66.9036
2459.0000	66.9791
2458.0000	66.9684
2457.0000	67.0002
2456.0000	67.5451
2455.0000	67.4016
2454.0000	67.4764
2453.0000	67.5979
2452.0000	67.5058
2451.0000	67.2028
2450.0000	67.0638
2449.0000	67.5696
2448.0000	67.6153
2447.0000	67.9858
2446.0000	67.9163
2445.0000	68.0225
2444.0000	67.9119
2443.0000	67.8731
2442.0000	67.8846
2441.0000	68.1846
2440.0000	68.2526
2439.0000	68.2721
2438.0000	68.2452
2437.0000	68.8684
2436.0000	68.673
2435.0000	68.6537
2434.0000	68.7414
2433.0000	68.9303
2432.0000	68.9174
2431.0000	68.9034
2430.0000	69.412
2429.0000	69.6538
2428.0000	69.8901
2427.0000	69.6807
2426.0000	69.7929
2425.0000	70.03
2424.0000	70.3615
2423.0000	70.4984
2422.0000	70.7233
2421.0000	70.8803
2420.0000	70.8485
2419.0000	70.9585
2418.0000	70.954
2417.0000	71.348
2416.0000	71.3442
2415.0000	71.4866
2414.0000	71.946
2413.0000	72.2211
2412.0000	72.5306
2411.0000	72.6222
2410.0000	72.862
2409.0000	73.0116
2408.0000	72.8527
2407.0000	73.1547
2406.0000	73.3305
2405.0000	73.8657
2404.0000	73.8352
2403.0000	73.8528
2402.0000	74.0931
2401.0000	74.4263
2400.0000	74.6376
2399.0000	74.9269
2398.0000	74.8931
2397.0000	75.265
2396.0000	75.4823
2395.0000	75.8847
2394.0000	75.6335
2393.0000	75.6927
2392.0000	75.7692
2391.0000	75.9138
2390.0000	75.9649
2389.0000	76.2793
2388.0000	76.6393
2387.0000	76.9196
2386.0000	76.8132
2385.0000	76.8966
2384.0000	77.1741
2383.0000	77.1435
2382.0000	77.4498
2381.0000	77.4617
2380.0000	77.9731
2379.0000	77.9771
2378.0000	78.1492
2377.0000	78.2604
2376.0000	78.3459
2375.0000	78.3068
2374.0000	78.5787
2373.0000	78.4565
2372.0000	78.5159
2371.0000	78.5321
2370.0000	78.9143
2369.0000	78.9725
2368.0000	78.8372
2367.0000	78.7023
2366.0000	78.8913
2365.0000	79.1983
2364.0000	79.3423
2363.0000	79.3975
2362.0000	79.4153
2361.0000	79.3449
2360.0000	79.1358
2359.0000	79.3477
2358.0000	79.4089
2357.0000	79.2498
2356.0000	79.1859
2355.0000	79.1931
2354.0000	79.0402
2353.0000	79.3561
2352.0000	79.1636
2351.0000	79.2384
2350.0000	78.9862
2349.0000	78.7747
2348.0000	78.7602
2347.0000	78.6977
2346.0000	78.7319
2345.0000	78.6488
2344.0000	78.4952
2343.0000	78.3239
2342.0000	78.1355
2341.0000	78.1466
2340.0000	78.2027
2339.0000	78.0398
2338.0000	77.936
2337.0000	77.8993
2336.0000	77.8507
2335.0000	77.8178
2334.0000	77.5296
2333.0000	77.2838
2332.0000	76.9772
2331.0000	76.8386
2330.0000	76.4762
2329.0000	76.2733
2328.0000	76.2406
2327.0000	76.0864
2326.0000	76.1223
2325.0000	75.9034
2324.0000	75.8196
2323.0000	75.4777
2322.0000	75.1897
2321.0000	74.8774
2320.0000	74.6044
2319.0000	74.3976
2318.0000	74.2221
2317.0000	74.239
2316.0000	74.0436
2315.0000	73.8841
2314.0000	73.6986
2313.0000	73.6641
2312.0000	73.5021
2311.0000	73.0876
2310.0000	72.9858
2309.0000	72.6454
2308.0000	72.4934
2307.0000	72.0719
2306.0000	71.8463
2305.0000	71.6003
2304.0000	71.291
2303.0000	71.6034
2302.0000	71.2525
2301.0000	71.2911
2300.0000	70.9675
2299.0000	70.7851
2298.0000	70.6139
2297.0000	70.5651
2296.0000	70.51
2295.0000	70.6528
2294.0000	70.243
2293.0000	70.1305
2292.0000	69.8339
2291.0000	69.7701
2290.0000	69.5451
2289.0000	69.1672
2288.0000	69.1574
2287.0000	68.9929
2286.0000	68.9333
2285.0000	68.84
2284.0000	68.7922
2283.0000	68.5986
2282.0000	68.1727
2281.0000	67.9974
2280.0000	67.9277
2279.0000	67.9816
2278.0000	68.0478
2277.0000	67.8606
2276.0000	67.8005
2275.0000	67.7768
2274.0000	67.7967
2273.0000	67.8399
2272.0000	67.6228
2271.0000	67.3699
2270.0000	67.3154
2269.0000	67.1951
2268.0000	67.4205
2267.0000	67.4761
2266.0000	67.3052
2265.0000	67.2005
2264.0000	67.1175
2263.0000	67.1141
2262.0000	67.175
2261.0000	67.2843
2260.0000	67.1598
2259.0000	67.2005
2258.0000	67.2257
2257.0000	67.5951
2256.0000	67.5868
2255.0000	67.6587
2254.0000	67.4895
2253.0000	67.5005
2252.0000	67.6557
2251.0000	67.5555
2250.0000	67.6191
2249.0000	67.5415
2248.0000	67.7252
2247.0000	67.5974
2246.0000	67.8322
2245.0000	67.9024
2244.0000	68.0216
2243.0000	68.0196
2242.0000	68.2951
2241.0000	68.3662
2240.0000	68.4643
2239.0000	68.2446
2238.0000	68.3757
2237.0000	68.4576
2236.0000	68.6811
2235.0000	68.9826
2234.0000	69.3013
2233.0000	69.6445
2232.0000	69.6634
2231.0000	69.7432
2230.0000	69.9578
2229.0000	70.1336
2228.0000	70.7482
2227.0000	70.838
2226.0000	70.836
2225.0000	70.9873
2224.0000	71.0526
2223.0000	71.1573
2222.0000	71.6409
2221.0000	71.8299
2220.0000	72.1631
2219.0000	72.1083
2218.0000	72.5571
2217.0000	72.7083
2216.0000	73.0756
2215.0000	73.3933
2214.0000	73.4176
2213.0000	73.5024
2212.0000	73.8288
2211.0000	74.2232
2210.0000	74.5729
2209.0000	74.6005
2208.0000	74.785
2207.0000	74.7803
2206.0000	75.1987
2205.0000	75.2947
2204.0000	75.4921
2203.0000	75.5113
2202.0000	75.6168
2201.0000	75.8909
2200.0000	76.0431
2199.0000	76.5435
2198.0000	76.7586
2197.0000	76.7511
2196.0000	77.1123
2195.0000	77.2488
2194.0000	77.5183
2193.0000	77.7794
2192.0000	77.9575
2191.0000	77.9939
2190.0000	78.1145
2189.0000	78.343
2188.0000	78.6846
2187.0000	78.642
2186.0000	78.6358
2185.0000	78.6931
2184.0000	78.9846
2183.0000	79.0977
2182.0000	79.2761
2181.0000	79.2041
2180.0000	79.1562
2179.0000	79.2802
2178.0000	79.501
2177.0000	79.5597
2176.0000	79.5234
2175.0000	79.6899
2174.0000	79.7509
2173.0000	79.7978
2172.0000	79.9174
2171.0000	79.7001
2170.0000	79.7501
2169.0000	79.7865
2168.0000	79.7221
2167.0000	79.6415
2166.0000	79.6107
2165.0000	79.6685
2164.0000	79.6557
2163.0000	79.6279
2162.0000	79.497
2161.0000	79.3415
2160.0000	79.3767
2159.0000	79.4021
2158.0000	79.2917
2157.0000	78.9765
2156.0000	78.7365
2155.0000	78.315
2154.0000	78.2043
2153.0000	77.8183
2152.0000	77.864
2151.0000	77.6119
2150.0000	77.6295
2149.0000	77.6018
2148.0000	77.2301
2147.0000	77.0042
2146.0000	76.6201
2145.0000	76.1614
2144.0000	76.0525
2143.0000	75.9015
2142.0000	75.7877
2141.0000	75.4925
2140.0000	75.2844
2139.0000	75.2018
2138.0000	75.1637
2137.0000	74.782
2136.0000	74.2664
2135.0000	74.0194
2134.0000	73.7898
2133.0000	73.6357
2132.0000	73.3761
2131.0000	73.1527
2130.0000	73.0285
2129.0000	72.6832
2128.0000	72.4798
2127.0000	72.1432
2126.0000	71.8416
2125.0000	71.4723
2124.0000	71.4161
2123.0000	71.1985
2122.0000	70.6502
2121.0000	70.4849
2120.0000	70.1556
2119.0000	70.2672
2118.0000	70.0498
2117.0000	70.0548
2116.0000	69.6814
2115.0000	69.5643
2114.0000	69.2678
2113.0000	68.9176
2112.0000	68.8056
2111.0000	68.5868
2110.0000	68.3788
2109.0000	68.2208
2108.0000	68.017
2107.0000	67.8594
2106.0000	67.752
2105.0000	67.7686
2104.0000	67.5987
2103.0000	67.5527
2102.0000	67.5387
2101.0000	67.0897
2100.0000	67.1526
2099.0000	66.8159
2098.0000	66.9301
2097.0000	66.8016
2096.0000	66.8938
2095.0000	66.6831
2094.0000	66.6633
2093.0000	66.527
2092.0000	66.7627
2091.0000	66.6162
2090.0000	66.5388
2089.0000	66.3497
2088.0000	66.303
2087.0000	66.2813
2086.0000	66.3156
2085.0000	66.4143
2084.0000	66.2888
2083.0000	66.3085
2082.0000	66.2815
2081.0000	66.3395
2080.0000	66.369
2079.0000	66.488
2078.0000	66.5525
2077.0000	66.5215
2076.0000	66.777
2075.0000	66.5412
2074.0000	66.8585
2073.0000	66.9824
2072.0000	67.4381
2071.0000	67.7062
2070.0000	67.7098
2069.0000	67.6595
2068.0000	67.8407
2067.0000	67.9483
2066.0000	68.4212
2065.0000	68.2519
2064.0000	68.3911
2063.0000	68.6361
2062.0000	68.9236
2061.0000	69.0141
2060.0000	69.0561
2059.0000	69.2821
2058.0000	69.6227
2057.0000	69.9227
2056.0000	70.1389
2055.0000	70.1727
2054.0000	70.637
2053.0000	70.8539
2052.0000	70.8499
2051.0000	71.1485
2050.0000	71.296
2049.0000	71.707
2048.0000	71.8556
2047.0000	71.9768
2046.0000	72.229
2045.0000	72.4241
2044.0000	72.7486
2043.0000	73.2628
2042.0000	73.5584
2041.0000	73.8715
2040.0000	74.1033
2039.0000	74.4331
2038.0000	74.5706
2037.0000	74.722
2036.0000	74.9157
2035.0000	75.3019
2034.0000	75.7008
2033.0000	75.9259
2032.0000	76.0846
2031.0000	76.3029
2030.0000	76.6931
2029.0000	76.8784
2028.0000	77.1321
2027.0000	77.2669
2026.0000	77.3948
2025.0000	77.5437
2024.0000	77.7004
2023.0000	77.8556
2022.0000	78.1125
2021.0000	78.2288
2020.0000	78.3134
2019.0000	78.5664
2018.0000	78.8297
2017.0000	78.9158
2016.0000	78.9073
2015.0000	78.884
2014.0000	79.1097
2013.0000	79.2816
2012.0000	79.4306
2011.0000	79.4644
2010.0000	79.4359
2009.0000	79.2847
2008.0000	79.2838
2007.0000	79.1794
2006.0000	79.3687
2005.0000	79.4319
2004.0000	79.4346
2003.0000	79.367
2002.0000	79.2538
2001.0000	79.4825
2000.0000	79.2245
1999.0000	78.9537
1998.0000	78.7533
1997.0000	78.525
1996.0000	78.366
1995.0000	78.0181
1994.0000	78.0115
1993.0000	77.9335
1992.0000	77.8193
1991.0000	77.7551
1990.0000	77.6744
1989.0000	77.0999
1988.0000	76.9629
1987.0000	76.5132
1986.0000	76.3966
1985.0000	75.9918
1984.0000	75.5875
1983.0000	75.3717
1982.0000	75.2196
1981.0000	75.123
1980.0000	74.8968
1979.0000	74.6214
1978.0000	74.4257
1977.0000	74.0642
1976.0000	73.601
1975.0000	73.4173
1974.0000	73.0137
1973.0000	72.8724
1972.0000	72.438
1971.0000	72.2186
1970.0000	72.1146
1969.0000	71.9176
1968.0000	72.0031
1967.0000	71.6026
1966.0000	71.2116
1965.0000	70.8438
1964.0000	70.594
1963.0000	70.3767
1962.0000	70.029
1961.0000	69.6282
1960.0000	69.6463
1959.0000	69.391
1958.0000	69.2473
1957.0000	68.7688
1956.0000	68.6104
1955.0000	68.4806
1954.0000	68.4046
1953.0000	68.3566
1952.0000	68.0129
1951.0000	67.9362
1950.0000	68.1727
1949.0000	67.9005
1948.0000	67.9079
1947.0000	67.354
1946.0000	67.2131
1945.0000	67.3107
1944.0000	67.2385
1943.0000	67.4368
1942.0000	67.103
1941.0000	66.8374
1940.0000	67.003
1939.0000	66.9795
1938.0000	67.3899
1937.0000	67.297
1936.0000	67.2047
1935.0000	67.0451
1934.0000	66.9459
1933.0000	67.0477
1932.0000	67.0587
1931.0000	67.0968
1930.0000	67.2958
1929.0000	67.1625
1928.0000	67.397
1927.0000	67.5461
1926.0000	67.6876
1925.0000	67.8201
1924.0000	67.5984
1923.0000	67.9783
1922.0000	68.2032
1921.0000	68.8271
1920.0000	69.0343
1919.0000	68.8672
1918.0000	68.7862
1917.0000	68.7677
1916.0000	69.0313
1915.0000	69.0416
1914.0000	69.5113
1913.0000	69.8688
1912.0000	70.1728
1911.0000	70.4945
1910.0000	70.3995
1909.0000	70.6964
1908.0000	70.9549
1907.0000	71.4917
1906.0000	72.3862
1905.0000	72.9045
1904.0000	73.2298
1903.0000	73.1298
1902.0000	73.384
1901.0000	73.4117
1900.0000	73.5327
1899.0000	74.0227
1898.0000	74.3516
1897.0000	74.8946
1896.0000	75.178
1895.0000	75.3328
1894.0000	75.6861
1893.0000	75.6083
1892.0000	76.0269
1891.0000	75.9848
1890.0000	76.4942
1889.0000	76.7832
1888.0000	77.308
1887.0000	77.5536
1886.0000	77.8035
1885.0000	78.1656
1884.0000	78.3176
1883.0000	78.5269
1882.0000	78.5346
1881.0000	78.6747
1880.0000	78.9264
1879.0000	79.14
1878.0000	79.4497
1877.0000	79.5667
1876.0000	80.0418
1875.0000	80.1292
1874.0000	80.4492
1873.0000	80.5685
1872.0000	80.4458
1871.0000	80.4635
1870.0000	80.1234
1869.0000	80.1213
1868.0000	79.682
1867.0000	79.7278
1866.0000	79.5924
1865.0000	79.7263
1864.0000	79.5485
1863.0000	79.3715
1862.0000	79.09
1861.0000	79.1116
1860.0000	79.3677
1859.0000	79.029
1858.0000	78.732
1857.0000	78.2721
1856.0000	77.6992
1855.0000	77.2508
1854.0000	77.2817
1853.0000	77.4435
1852.0000	77.4999
1851.0000	77.2978
1850.0000	76.8294
1849.0000	76.5678
1848.0000	76.0917
1847.0000	75.5641
1846.0000	75.3502
1845.0000	75.2431
1844.0000	75.2501
1843.0000	74.9343
1842.0000	74.6922
1841.0000	74.1695
1840.0000	73.9111
1839.0000	73.3296
1838.0000	72.9377
1837.0000	72.4148
1836.0000	72.2233
1835.0000	72.0848
1834.0000	71.7551
1833.0000	71.4954
1832.0000	71.074
1831.0000	70.9184
1830.0000	70.7345
1829.0000	70.6933
1828.0000	70.5666
1827.0000	70.6156
1826.0000	70.2068
1825.0000	69.9025
1824.0000	69.1731
1823.0000	68.6414
1822.0000	68.1781
1821.0000	68.0397
1820.0000	67.7933
1819.0000	67.9459
1818.0000	67.9211
1817.0000	67.9355
1816.0000	67.991
1815.0000	67.7632
1814.0000	67.7967
1813.0000	67.4699
1812.0000	67.429
1811.0000	67.2089
1810.0000	67.3256
1809.0000	67.1797
1808.0000	67.1552
1807.0000	67.1151
1806.0000	67.2603
1805.0000	67.2781
1804.0000	67.2578
1803.0000	67.3415
1802.0000	67.247
1801.0000	67.5103
1800.0000	67.3893
1799.0000	67.7664
1798.0000	67.6887
1797.0000	67.9846
1796.0000	67.9548
1795.0000	68.2845
1794.0000	68.4688
1793.0000	68.7402
1792.0000	68.8473
1791.0000	69.0892
1790.0000	69.3065
1789.0000	69.629
1788.0000	70.0173
1787.0000	70.1938
1786.0000	70.4785
1785.0000	70.6236
1784.0000	71.1275
1783.0000	71.2886
1782.0000	71.7216
1781.0000	71.872
1780.0000	72.3088
1779.0000	72.4525
1778.0000	72.7481
1777.0000	72.9173
1776.0000	73.6253
1775.0000	74.118
1774.0000	74.6225
1773.0000	74.8688
1772.0000	75.1444
1771.0000	75.4165
1770.0000	75.7484
1769.0000	75.9961
1768.0000	76.5015
1767.0000	76.8252
1766.0000	77.1545
1765.0000	77.483
1764.0000	77.7489
1763.0000	78.0506
1762.0000	78.1531
1761.0000	78.3899
1760.0000	78.6216
1759.0000	78.7439
1758.0000	78.8502
1757.0000	79.0968
1756.0000	79.2523
1755.0000	79.493
1754.0000	79.6033
1753.0000	79.7315
1752.0000	79.8954
1751.0000	79.7373
1750.0000	79.6612
1749.0000	79.592
1748.0000	79.7619
1747.0000	79.7241
1746.0000	79.7628
1745.0000	79.7488
1744.0000	79.5134
1743.0000	79.4154
1742.0000	79.0491
1741.0000	79.084
1740.0000	78.9593
1739.0000	78.6036
1738.0000	78.3723
1737.0000	78.1534
1736.0000	78.085
1735.0000	77.7937
1734.0000	77.383
1733.0000	76.914
1732.0000	76.5739
1731.0000	76.2598
1730.0000	76.049
1729.0000	75.8284
1728.0000	75.4558
1727.0000	75.0146
1726.0000	74.6419
1725.0000	74.3682
1724.0000	74.2304
1723.0000	73.757
1722.0000	73.3777
1721.0000	72.9611
1720.0000	72.6166
1719.0000	72.1948
1718.0000	71.8877
1717.0000	71.5491
1716.0000	71.1781
1715.0000	70.8519
1714.0000	70.5664
1713.0000	70.3174
1712.0000	69.9949
1711.0000	69.7194
1710.0000	69.3369
1709.0000	69.115
1708.0000	68.9611
1707.0000	68.8217
1706.0000	68.7342
1705.0000	68.416
1704.0000	68.1057
1703.0000	67.7856
1702.0000	67.7402
1701.0000	67.4966
1700.0000	67.3655
1699.0000	67.2015
1698.0000	67.0851
1697.0000	67.1921
1696.0000	67.0648
1695.0000	66.9737
1694.0000	66.9545
1693.0000	66.9328
1692.0000	67.0178
1691.0000	67.1945
1690.0000	67.3188
1689.0000	67.2803
1688.0000	67.3423
1687.0000	67.371
1686.0000	67.522
1685.0000	67.5958
1684.0000	67.7537
1683.0000	67.8439
1682.0000	68.1892
1681.0000	68.4278
1680.0000	68.704
1679.0000	68.8951
1678.0000	69.2337
1677.0000	69.6592
1676.0000	69.8706
1675.0000	70.2103
1674.0000	70.305
1673.0000	70.6477
1672.0000	70.9866
1671.0000	71.4085
1670.0000	71.7877
1669.0000	72.2104
1668.0000	72.5484
1667.0000	73.0199
1666.0000	73.3525
1665.0000	73.5892
1664.0000	73.9942
1663.0000	74.3547
1662.0000	74.7418
1661.0000	75.0858
1660.0000	75.328
1659.0000	75.8352
1658.0000	76.3204
1657.0000	76.8644
1656.0000	77.3174
1655.0000	77.7903
1654.0000	77.959
1653.0000	78.2696
1652.0000	78.5058
1651.0000	78.7242
1650.0000	78.8207
1649.0000	78.9342
1648.0000	79.1541
1647.0000	79.2737
1646.0000	79.4805
1645.0000	79.5776
1644.0000	79.7245
1643.0000	79.6743
1642.0000	79.5873
1641.0000	79.5501
1640.0000	79.6326
1639.0000	79.6418
1638.0000	79.5108
1637.0000	79.3897
1636.0000	79.246
1635.0000	79.0609
1634.0000	78.8952
1633.0000	78.5412
1632.0000	78.1799
1631.0000	77.8621
1630.0000	77.667
1629.0000	77.5184
1628.0000	77.2041
1627.0000	76.8599
1626.0000	76.479
1625.0000	75.9599
1624.0000	75.5794
1623.0000	75.0355
1622.0000	74.7827
1621.0000	74.4627
1620.0000	74.1532
1619.0000	73.7182
1618.0000	73.3386
1617.0000	72.882
1616.0000	72.4482
1615.0000	71.9661
1614.0000	71.5721
1613.0000	71.2028
1612.0000	70.7671
1611.0000	70.3384
1610.0000	70.0535
1609.0000	69.7227
1608.0000	69.5187
1607.0000	69.1852
1606.0000	68.8977
1605.0000	68.6252
1604.0000	68.3987
1603.0000	68.1523
1602.0000	67.9704
1601.0000	67.9092
1600.0000	67.8355
1599.0000	68.1071
1598.0000	68.3363
1597.0000	68.7923
1596.0000	68.8816
1595.0000	68.7442
1594.0000	68.2906
1593.0000	67.8103
1592.0000	67.5686
1591.0000	67.5309
1590.0000	67.6215
1589.0000	67.6112
1588.0000	67.6894
1587.0000	67.8269
1586.0000	67.9437
1585.0000	68.185
1584.0000	68.3374
1583.0000	68.7375
1582.0000	68.994
1581.0000	69.321
1580.0000	69.5606
1579.0000	69.8762
1578.0000	70.2611
1577.0000	70.5323
1576.0000	70.9402
1575.0000	71.1929
1574.0000	71.6271
1573.0000	71.9471
1572.0000	72.4312
1571.0000	72.9629
1570.0000	73.4549
1569.0000	74.0376
1568.0000	74.3923
1567.0000	74.803
1566.0000	75.1463
1565.0000	75.5219
1564.0000	75.9835
1563.0000	76.4187
1562.0000	76.939
1561.0000	77.3129
1560.0000	77.6829
1559.0000	77.9399
1558.0000	78.3358
1557.0000	78.5912
1556.0000	78.869
1555.0000	79.0812
1554.0000	79.3318
1553.0000	79.3881
1552.0000	79.5235
1551.0000	79.6315
1550.0000	79.686
1549.0000	79.7702
1548.0000	79.6665
1547.0000	79.632
1546.0000	79.5125
1545.0000	79.4964
1544.0000	79.485
1543.0000	79.3431
1542.0000	79.0266
1541.0000	78.6891
1540.0000	78.3823
1539.0000	78.0582
1538.0000	77.7034
1537.0000	77.4104
1536.0000	77.0792
1535.0000	76.678
1534.0000	76.2357
1533.0000	75.6807
1532.0000	75.2341
1531.0000	74.8071
1530.0000	74.3551
1529.0000	73.9144
1528.0000	73.3586
1527.0000	72.8086
1526.0000	72.3766
1525.0000	71.9732
1524.0000	71.5899
1523.0000	71.1818
1522.0000	70.666
1521.0000	70.3121
1520.0000	69.9084
1519.0000	69.633
1518.0000	69.3348
1517.0000	69.0557
1516.0000	68.6542
1515.0000	68.427
1514.0000	68.0955
1513.0000	67.8289
1512.0000	67.5307
1511.0000	67.3804
1510.0000	67.2462
1509.0000	67.1643
1508.0000	67.0656
1507.0000	66.9817
1506.0000	66.9637
1505.0000	66.9079
1504.0000	66.9614
1503.0000	67.1068
1502.0000	67.2073
1501.0000	67.3175
1500.0000	67.4894
1499.0000	67.6584
1498.0000	67.8653
1497.0000	68.0744
1496.0000	68.34
1495.0000	68.5634
1494.0000	68.873
1493.0000	69.1091
1492.0000	69.4231
1491.0000	69.7801
1490.0000	70.3622
1489.0000	70.7495
1488.0000	71.2216
1487.0000	71.7028
1486.0000	72.1552
1485.0000	72.6199
1484.0000	73.1393
1483.0000	73.6672
1482.0000	74.1087
1481.0000	74.6493
1480.0000	75.1922
1479.0000	75.7144
1478.0000	76.1264
1477.0000	76.4913
1476.0000	76.9655
1475.0000	77.3604
1474.0000	77.8213
1473.0000	78.1464
1472.0000	78.5615
1471.0000	78.8412
1470.0000	79.1548
1469.0000	79.2553
1468.0000	79.4472
1467.0000	79.6781
1466.0000	79.886
1465.0000	79.9465
1464.0000	79.8481
1463.0000	79.7855
1462.0000	79.7157
1461.0000	79.6539
1460.0000	79.494
1459.0000	79.3466
1458.0000	78.9609
1457.0000	78.6766
1456.0000	78.3183
1455.0000	77.9672
1454.0000	77.4962
1453.0000	77.065
1452.0000	76.6185
1451.0000	76.1342
1450.0000	75.5958
1449.0000	75.1203
1448.0000	74.6077
1447.0000	74.1006
1446.0000	73.5321
1445.0000	72.9185
1444.0000	72.4195
1443.0000	71.8601
1442.0000	71.3863
1441.0000	70.9816
1440.0000	70.4749
1439.0000	70.0586
1438.0000	69.6134
1437.0000	69.2422
1436.0000	68.8837
1435.0000	68.5552
1434.0000	68.3082
1433.0000	68.0444
1432.0000	67.7272
1431.0000	67.5143
1430.0000	67.2829
1429.0000	67.2
1428.0000	67.0933
1427.0000	66.8425
1426.0000	66.789
1425.0000	66.7854
1424.0000	66.9059
1423.0000	66.9799
1422.0000	67.1513
1421.0000	67.2907
1420.0000	67.339
1419.0000	67.6077
1418.0000	67.9399
1417.0000	68.2539
1416.0000	68.649
1415.0000	68.9339
1414.0000	69.2792
1413.0000	69.681
1412.0000	70.1682
1411.0000	70.4827
1410.0000	71.1135
1409.0000	71.6689
1408.0000	72.3444
1407.0000	72.947
1406.0000	73.4795
1405.0000	73.9602
1404.0000	74.4128
1403.0000	74.8565
1402.0000	75.4363
1401.0000	75.9593
1400.0000	76.4837
1399.0000	76.8133
1398.0000	77.0781
1397.0000	77.4903
1396.0000	77.9231
1395.0000	78.3699
1394.0000	78.7701
1393.0000	79.0495
1392.0000	79.2891
1391.0000	79.4249
1390.0000	79.4466
1389.0000	79.3706
1388.0000	79.1986
1387.0000	78.9319
1386.0000	78.6947
1385.0000	78.514
1384.0000	78.3114
1383.0000	78.046
1382.0000	77.867
1381.0000	77.495
1380.0000	77.1378
1379.0000	76.6932
1378.0000	76.2985
1377.0000	75.7298
1376.0000	75.2269
1375.0000	74.636
1374.0000	74.1265
1373.0000	73.5536
1372.0000	73.0223
1371.0000	72.4323
1370.0000	71.8309
1369.0000	71.2165
1368.0000	70.6327
1367.0000	70.145
1366.0000	69.6584
1365.0000	69.4169
1364.0000	68.9821
1363.0000	68.5826
1362.0000	68.0489
1361.0000	67.6479
1360.0000	67.4964
1359.0000	67.2005
1358.0000	67.0695
1357.0000	66.7268
1356.0000	66.6743
1355.0000	66.6877
1354.0000	66.7601
1353.0000	66.9449
1352.0000	67.0885
1351.0000	67.286
1350.0000	67.3859
1349.0000	67.6149
1348.0000	67.8638
1347.0000	68.2079
1346.0000	68.6183
1345.0000	68.9994
1344.0000	69.497
1343.0000	69.9809
1342.0000	70.4359
1341.0000	70.8101
1340.0000	71.3061
1339.0000	71.9661
1338.0000	72.6904
1337.0000	73.3247
1336.0000	73.836
1335.0000	74.3376
1334.0000	74.8973
1333.0000	75.5579
1332.0000	76.0571
1331.0000	76.6908
1330.0000	77.1485
1329.0000	77.6169
1328.0000	77.9572
1327.0000	78.3134
1326.0000	78.6182
1325.0000	78.9916
1324.0000	79.1563
1323.0000	79.3065
1322.0000	79.3614
1321.0000	79.3826
1320.0000	79.2455
1319.0000	79.1276
1318.0000	78.7946
1317.0000	78.4872
1316.0000	78.1095
1315.0000	77.6886
1314.0000	77.2725
1313.0000	76.8091
1312.0000	76.2627
1311.0000	75.6333
1310.0000	75.0461
1309.0000	74.3706
1308.0000	73.7663
1307.0000	73.026
1306.0000	72.3806
1305.0000	71.7624
1304.0000	71.189
1303.0000	70.6706
1302.0000	69.9816
1301.0000	69.4179
1300.0000	68.9505
1299.0000	68.6115
1298.0000	68.1675
1297.0000	67.7119
1296.0000	67.4121
1295.0000	67.244
1294.0000	67.0169
1293.0000	66.8605
1292.0000	66.612
1291.0000	66.5084
1290.0000	66.4125
1289.0000	66.3967
1288.0000	66.5304
1287.0000	66.6252
1286.0000	66.8135
1285.0000	67.0851
1284.0000	67.4125
1283.0000	67.8743
1282.0000	68.2879
1281.0000	68.7881
1280.0000	69.2776
1279.0000	69.7768
1278.0000	70.2885
1277.0000	70.8497
1276.0000	71.5325
1275.0000	72.173
1274.0000	72.9121
1273.0000	73.5122
1272.0000	74.2662
1271.0000	74.9161
1270.0000	75.5093
1269.0000	76.1409
1268.0000	76.7157
1267.0000	77.265
1266.0000	77.7548
1265.0000	78.1601
1264.0000	78.4993
1263.0000	78.8254
1262.0000	79.0655
1261.0000	79.2882
1260.0000	79.196
1259.0000	79.1141
1258.0000	78.9633
1257.0000	78.8301
1256.0000	78.5635
1255.0000	78.2121
1254.0000	77.7277
1253.0000	77.2836
1252.0000	76.7471
1251.0000	76.1874
1250.0000	75.4911
1249.0000	74.7727
1248.0000	74.1326
1247.0000	73.4436
1246.0000	72.7069
1245.0000	71.9314
1244.0000	71.2527
1243.0000	70.6343
1242.0000	70.0211
1241.0000	69.4065
1240.0000	68.8509
1239.0000	68.3418
1238.0000	67.8835
1237.0000	67.4922
1236.0000	67.1457
1235.0000	66.8833
1234.0000	66.6991
1233.0000	66.5886
1232.0000	66.5573
1231.0000	66.4756
1230.0000	66.5667
1229.0000	66.7077
1228.0000	66.9724
1227.0000	67.2327
1226.0000	67.5278
1225.0000	67.8361
1224.0000	68.2408
1223.0000	68.719
1222.0000	69.2598
1221.0000	69.8688
1220.0000	70.5429
1219.0000	71.3183
1218.0000	72.0103
1217.0000	72.6913
1216.0000	73.4186
1215.0000	74.1705
1214.0000	74.8674
1213.0000	75.5177
1212.0000	76.184
1211.0000	76.792
1210.0000	77.368
1209.0000	77.8235
1208.0000	78.26
1207.0000	78.5585
1206.0000	78.7423
1205.0000	78.86
1204.0000	78.7929
1203.0000	78.7607
1202.0000	78.5542
1201.0000	78.3227
1200.0000	78.005
1199.0000	77.5258
1198.0000	77.0515
1197.0000	76.3976
1196.0000	75.8152
1195.0000	75.0863
1194.0000	74.3464
1193.0000	73.6253
1192.0000	72.8401
1191.0000	72.0839
1190.0000	71.2913
1189.0000	70.6012
1188.0000	69.8889
1187.0000	69.1578
1186.0000	68.5844
1185.0000	68.0073
1184.0000	67.5831
1183.0000	67.2546
1182.0000	66.9661
1181.0000	66.717
1180.0000	66.4743
1179.0000	66.3547
1178.0000	66.3187
1177.0000	66.4229
1176.0000	66.5629
1175.0000	66.8286
1174.0000	67.145
1173.0000	67.4992
1172.0000	68.0036
1171.0000	68.5396
1170.0000	69.0715
1169.0000	69.6767
1168.0000	70.3331
1167.0000	71.0959
1166.0000	71.9092
1165.0000	72.7306
1164.0000	73.5127
1163.0000	74.3124
1162.0000	75.0567
1161.0000	75.7947
1160.0000	76.5043
1159.0000	77.1593
1158.0000	77.717
1157.0000	78.0861
1156.0000	78.4168
1155.0000	78.6663
1154.0000	78.751
1153.0000	78.7752
1152.0000	78.6254
1151.0000	78.3601
1150.0000	77.9872
1149.0000	77.5482
1148.0000	76.9786
1147.0000	76.3092
1146.0000	75.5356
1145.0000	74.7776
1144.0000	74.0043
1143.0000	73.2448
1142.0000	72.4981
1141.0000	71.6157
1140.0000	70.8192
1139.0000	69.9933
1138.0000	69.2661
1137.0000	68.6591
1136.0000	68.0349
1135.0000	67.5175
1134.0000	67.0514
1133.0000	66.6758
1132.0000	66.3538
1131.0000	66.1479
1130.0000	66.1271
1129.0000	66.2686
1128.0000	66.3638
1127.0000	66.6307
1126.0000	66.8081
1125.0000	67.1603
1124.0000	67.5932
1123.0000	68.1191
1122.0000	68.8069
1121.0000	69.5132
1120.0000	70.2558
1119.0000	71.0576
1118.0000	71.8782
1117.0000	72.815
1116.0000	73.7042
1115.0000	74.5786
1114.0000	75.3257
1113.0000	76.0588
1112.0000	76.7313
1111.0000	77.3319
1110.0000	77.8276
1109.0000	78.2676
1108.0000	78.6272
1107.0000	78.7687
1106.0000	78.6738
1105.0000	78.4786
1104.0000	78.1646
1103.0000	77.7271
1102.0000	77.2439
1101.0000	76.6275
1100.0000	75.9098
1099.0000	75.1299
1098.0000	74.2868
1097.0000	73.4819
1096.0000	72.559
1095.0000	71.6954
1094.0000	70.7701
1093.0000	69.9603
1092.0000	69.169
1091.0000	68.5663
1090.0000	67.9168
1089.0000	67.44
1088.0000	66.9615
1087.0000	66.6439
1086.0000	66.4638
1085.0000	66.2875
1084.0000	66.3224
1083.0000	66.4143
1082.0000	66.6851
1081.0000	67.0752
1080.0000	67.516
1079.0000	68.0971
1078.0000	68.6958
1077.0000	69.4004
1076.0000	70.2051
1075.0000	71.051
1074.0000	71.9403
1073.0000	72.7548
1072.0000	73.5965
1071.0000	74.5314
1070.0000	75.465
1069.0000	76.2856
1068.0000	76.9203
1067.0000	77.456
1066.0000	77.9363
1065.0000	78.1487
1064.0000	78.385
1063.0000	78.3884
1062.0000	78.202
1061.0000	77.8826
1060.0000	77.4419
1059.0000	76.8432
1058.0000	76.1335
1057.0000	75.3729
1056.0000	74.4935
1055.0000	73.5238
1054.0000	72.5898
1053.0000	71.7296
1052.0000	70.8068
1051.0000	69.9706
1050.0000	69.0566
1049.0000	68.2995
1048.0000	67.6387
1047.0000	67.1486
1046.0000	66.8096
1045.0000	66.5382
1044.0000	66.3281
1043.0000	66.2413
1042.0000	66.2587
1041.0000	66.4962
1040.0000	66.868
1039.0000	67.3952
1038.0000	67.9879
1037.0000	68.7969
1036.0000	69.5936
1035.0000	70.5001
1034.0000	71.4274
1033.0000	72.3861
1032.0000	73.3968
1031.0000	74.3425
1030.0000	75.2178
1029.0000	76.0926
1028.0000	76.8451
1027.0000	77.4805
1026.0000	77.9093
1025.0000	78.2635
1024.0000	78.4436
1023.0000	78.3876
1022.0000	78.1292
1021.0000	77.6611
1020.0000	77.043
1019.0000	76.2121
1018.0000	75.377
1017.0000	74.4927
1016.0000	73.5322
1015.0000	72.4738
1014.0000	71.366
1013.0000	70.4022
1012.0000	69.4892
1011.0000	68.7256
1010.0000	67.8934
1009.0000	67.3473
1008.0000	66.7944
1007.0000	66.3767
1006.0000	66.1578
1005.0000	66.1165
1004.0000	66.3193
1003.0000	66.4706
1002.0000	66.904
1001.0000	67.5417
1000.0000	68.2945
999.0000	69.1448
998.0000	69.9781
997.0000	70.891
996.0000	71.8615
995.0000	72.9997
994.0000	73.983
993.0000	75.0842
992.0000	75.9461
991.0000	76.7455
990.0000	77.4189
989.0000	77.9123
988.0000	78.1365
987.0000	78.2473
986.0000	78.1427
985.0000	77.7717
984.0000	77.2128
983.0000	76.4097
982.0000	75.549
981.0000	74.6131
980.0000	73.5751
979.0000	72.567
978.0000	71.4655
977.0000	70.4228
976.0000	69.491
975.0000	68.5313
974.0000	67.785
973.0000	67.2058
972.0000	66.7886
971.0000	66.5556
970.0000	66.4061
969.0000	66.5035
968.0000	66.7428
967.0000	67.1541
966.0000	67.7855
965.0000	68.4226
964.0000	69.3227
963.0000	70.3824
962.0000	71.449
961.0000	72.4779
960.0000	73.495
959.0000	74.6218
958.0000	75.6485
957.0000	76.5923
956.0000	77.2142
955.0000	77.7681
954.0000	78.0512
953.0000	78.1665
952.0000	78.0076
951.0000	77.5209
950.0000	76.8735
949.0000	76.0635
948.0000	75.0831
947.0000	73.9581
946.0000	72.8316
945.0000	71.6437
944.0000	70.6805
943.0000	69.7168
942.0000	68.8587
941.0000	68.0257
940.0000	67.3265
939.0000	66.8705
938.0000	66.5095
937.0000	66.4742
936.0000	66.5226
935.0000	66.7649
934.0000	67.3244
933.0000	68.0226
932.0000	68.9066
931.0000	69.7907
930.0000	70.9557
929.0000	71.9636
928.0000	73.2443
927.0000	74.315
926.0000	75.4983
925.0000	76.356
924.0000	77.1524
923.0000	77.6121
922.0000	77.9569
921.0000	77.8314
920.0000	77.7661
919.0000	77.3796
918.0000	76.6382
917.0000	75.7159
916.0000	74.7071
915.0000	73.6272
914.0000	72.3934
913.0000	71.187
912.0000	70.0121
911.0000	69.1272
910.0000	68.301
909.0000	67.5899
908.0000	66.953
907.0000	66.594
906.0000	66.6002
905.0000	66.6126
904.0000	67.0384
903.0000	67.557
902.0000	68.4643
901.0000	69.3268
900.0000	70.5369
899.0000	71.7278
898.0000	72.964
897.0000	74.2117
896.0000	75.412
895.0000	76.2767
894.0000	77.2278
893.0000	77.5551
892.0000	78.0512
891.0000	77.9794
890.0000	77.6559
889.0000	76.9857
888.0000	75.982
887.0000	74.9234
886.0000	73.7266
885.0000	72.4604
884.0000	71.3605
883.0000	70.3648
882.0000	69.1809
881.0000	68.3374
880.0000	67.4806
879.0000	67.0619
878.0000	67.0286
877.0000	66.8811
876.0000	67.1374
875.0000	67.5059
874.0000	68.3918
873.0000	69.303
872.0000	70.6002
871.0000	71.6746
870.0000	73.0354
869.0000	74.1872
868.0000	75.3977
867.0000	76.2537
866.0000	77.0361
865.0000	77.6203
864.0000	77.8258
863.0000	77.6899
862.0000	77.1963
861.0000	76.5946
860.0000	75.5527
859.0000	74.4423
858.0000	73.1034
857.0000	71.936
856.0000	70.6509
855.0000	69.3375
854.0000	68.3452
853.0000	67.441
852.0000	67.0541
851.0000	66.8852
850.0000	67.4316
849.0000	67.4559
848.0000	67.762
847.0000	68.4049
846.0000	69.284
845.0000	70.4243
844.0000	71.745
843.0000	73.1518
842.0000	74.6125
841.0000	76.0054
840.0000	77.2457
839.0000	78.1836
838.0000	78.8052
837.0000	79.0711
836.0000	78.9459
835.0000	78.4046
834.0000	77.4814
833.0000	76.2877
832.0000	74.8979
831.0000	73.4902
830.0000	72.0523
829.0000	70.7232
828.0000	69.52
827.0000	68.5587
826.0000	67.9318
825.0000	67.6211
824.0000	67.6263
823.0000	67.9675
822.0000	68.6245
821.0000	69.5376
820.0000	70.7067
819.0000	72.0706
818.0000	73.57
817.0000	75.1146
816.0000	76.5291
815.0000	77.6914
814.0000	78.4858
813.0000	78.9306
812.0000	78.9504
811.0000	78.567
810.0000	77.7426
809.0000	76.5674
808.0000	75.1239
807.0000	73.6195
806.0000	72.0618
805.0000	70.6721
804.0000	69.4548
803.0000	68.5543
802.0000	67.9755
801.0000	67.7241
800.0000	67.8672
799.0000	68.4076
798.0000	69.3404
797.0000	70.5363
796.0000	71.9522
795.0000	73.5059
794.0000	75.0854
793.0000	76.5518
792.0000	77.7454
791.0000	78.5763
790.0000	78.9656
789.0000	78.8588
788.0000	78.262
787.0000	77.2262
786.0000	75.8611
785.0000	74.3254
784.0000	72.7195
783.0000	71.1786
782.0000	69.8391
781.0000	68.8033
780.0000	68.117
779.0000	67.803
778.0000	67.9052
777.0000	68.4248
776.0000	69.3628
775.0000	70.6337
774.0000	72.1526
773.0000	73.7721
772.0000	75.4022
771.0000	76.8632
770.0000	78.0212
769.0000	78.7582
768.0000	78.9426
767.0000	78.6007
766.0000	77.7431
765.0000	76.4856
764.0000	74.9437
763.0000	73.2691
762.0000	71.6198
761.0000	70.1729
760.0000	69.0203
759.0000	68.2485
758.0000	67.9189
757.0000	68.0864
756.0000	68.7271
755.0000	69.7534
754.0000	71.1413
753.0000	72.7548
752.0000	74.4708
751.0000	76.1007
750.0000	77.4674
749.0000	78.3961
748.0000	78.7947
747.0000	78.6014
746.0000	77.7946
745.0000	76.4886
744.0000	74.8554
743.0000	73.1073
742.0000	71.4195
741.0000	69.9307
740.0000	68.8121
739.0000	68.1375
738.0000	67.9485
737.0000	68.2931
736.0000	69.1634
735.0000	70.4805
734.0000	72.1147
733.0000	73.8846
732.0000	75.6143
731.0000	77.1136
730.0000	78.1688
729.0000	78.6846
728.0000	78.5465
727.0000	77.7863
726.0000	76.4636
725.0000	74.7497
724.0000	72.9063
723.0000	71.126
722.0000	69.6112
721.0000	68.5174
720.0000	67.9458
719.0000	67.9342
718.0000	68.4954
717.0000	69.5345
716.0000	71.0337
715.0000	72.8243
714.0000	74.6976
713.0000	76.3901
712.0000	77.6558
711.0000	78.3507
710.0000	78.3292
709.0000	77.6018
708.0000	76.2788
707.0000	74.5419
706.0000	72.6528
705.0000	70.8192
704.0000	69.2782
703.0000	68.2197
702.0000	67.7549
701.0000	67.9263
700.0000	68.7366
699.0000	70.0785
698.0000	71.8186
697.0000	73.7309
696.0000	75.569
695.0000	77.0458
694.0000	77.922
693.0000	78.0347
692.0000	77.3549
691.0000	75.9973
690.0000	74.1854
689.0000	72.2
688.0000	70.374
687.0000	68.9312
686.0000	68.0573
685.0000	67.8207
684.0000	68.2856
683.0000	69.392
682.0000	71.0161
681.0000	72.9229
680.0000	74.8617
679.0000	76.4912
678.0000	77.6009
677.0000	77.9102
676.0000	77.3909
675.0000	76.099
674.0000	74.2811
673.0000	72.2339
672.0000	70.269
671.0000	68.705
670.0000	67.7214
669.0000	67.4928
668.0000	68.0176
667.0000	69.248
666.0000	71.037
665.0000	73.0946
664.0000	75.0867
663.0000	76.6435
662.0000	77.485
661.0000	77.4125
660.0000	76.4344
659.0000	74.7267
658.0000	72.6318
657.0000	70.5292
656.0000	68.7754
655.0000	67.6546
654.0000	67.3424
653.0000	67.8603
652.0000	69.1625
651.0000	71.0351
650.0000	73.165
649.0000	75.1456
648.0000	76.5814
647.0000	77.1726
646.0000	76.7571
645.0000	75.4238
644.0000	73.4308
643.0000	71.2126
642.0000	69.1697
641.0000	67.7091
640.0000	67.061
639.0000	67.3452
638.0000	68.4981
637.0000	70.3387
636.0000	72.5137
635.0000	74.6025
634.0000	76.1518
633.0000	76.7987
632.0000	76.3722
631.0000	74.9667
630.0000	72.8888
629.0000	70.6033
628.0000	68.5714
627.0000	67.232
626.0000	66.782
625.0000	67.3497
624.0000	68.811
623.0000	70.8998
622.0000	73.1762
621.0000	75.1082
620.0000	76.2386
619.0000	76.2909
618.0000	75.2163
617.0000	73.2859
616.0000	70.9506
615.0000	68.757
614.0000	67.194
613.0000	66.604
612.0000	67.0968
611.0000	68.6094
610.0000	70.7811
609.0000	73.0949
608.0000	74.9766
607.0000	75.9256
606.0000	75.6507
605.0000	74.2342
604.0000	72.0361
603.0000	69.6494
602.0000	67.6471
601.0000	66.5253
600.0000	66.5245
599.0000	67.696
598.0000	69.7467
597.0000	72.1712
596.0000	74.2849
595.0000	75.4976
594.0000	75.3983
593.0000	74.0129
592.0000	71.7443
591.0000	69.2782
590.0000	67.284
589.0000	66.2835
588.0000	66.4994
587.0000	67.8887
586.0000	70.1067
585.0000	72.5251
584.0000	74.4348
583.0000	75.1947
582.0000	74.561
581.0000	72.7172
580.0000	70.2615
579.0000	67.933
578.0000	66.4172
577.0000	66.1357
576.0000	67.1592
575.0000	69.1902
574.0000	71.6339
573.0000	73.7611
572.0000	74.8168
571.0000	74.4196
570.0000	72.6614
569.0000	70.183
568.0000	67.8124
567.0000	66.3118
566.0000	66.1146
565.0000	67.2891
564.0000	69.4767
563.0000	71.9791
562.0000	73.924
561.0000	74.5646
560.0000	73.6456
559.0000	71.5101
558.0000	68.9436
557.0000	66.8939
556.0000	66.0732
555.0000	66.757
554.0000	68.7311
553.0000	71.2755
552.0000	73.4112
551.0000	74.2734
550.0000	73.4923
549.0000	71.3965
548.0000	68.8388
547.0000	66.8287
546.0000	66.1224
545.0000	66.9901
544.0000	69.0977
543.0000	71.633
542.0000	73.5469
541.0000	73.992
540.0000	72.7593
539.0000	70.3865
538.0000	67.9192
537.0000	66.3952
536.0000	66.4254
535.0000	68.0213
534.0000	70.4901
533.0000	72.7932
532.0000	73.8562
531.0000	73.2132
530.0000	71.1188
529.0000	68.5993
528.0000	66.7611
527.0000	66.447
526.0000	67.7831
525.0000	70.192
524.0000	72.5285
523.0000	73.6574
522.0000	72.9735
521.0000	70.8274
520.0000	68.4452
519.0000	66.8257
518.0000	66.8826
517.0000	68.5614
516.0000	71.0696
515.0000	73.089
514.0000	73.5872
513.0000	72.222
512.0000	69.8111
511.0000	67.6358
510.0000	66.8674
509.0000	67.9272
508.0000	70.2488
507.0000	72.5252
506.0000	73.4332
505.0000	72.4509
504.0000	70.1402
503.0000	67.9333
502.0000	67.1172
501.0000	68.1599
500.0000	70.4549
499.0000	72.5964
498.0000	73.2539
497.0000	72.0139
496.0000	69.6703
495.0000	67.7133
494.0000	67.4026
493.0000	68.9282
492.0000	71.2962
491.0000	72.9545
490.0000	72.7819
489.0000	70.903
488.0000	68.6212
487.0000	67.502
486.0000	68.2721
485.0000	70.4197
484.0000	72.425
483.0000	72.8532
482.0000	71.41
481.0000	69.1697
480.0000	67.7624
479.0000	68.2067
478.0000	70.1888
477.0000	72.1885
476.0000	72.7144
475.0000	71.3321
474.0000	69.1282
473.0000	67.8184
472.0000	68.4419
471.0000	70.4415
470.0000	72.2035
469.0000	72.2432
468.0000	70.5404
467.0000	68.5361
466.0000	67.9245
465.0000	69.1786
464.0000	71.1907
463.0000	72.1715
462.0000	71.2208
461.0000	69.1889
460.0000	67.9042
459.0000	68.5168
458.0000	70.4147
457.0000	71.7502
456.0000	71.2108
455.0000	69.2955
454.0000	67.8539
453.0000	68.27
452.0000	70.0225
451.0000	71.2355
450.0000	70.5976
449.0000	68.7224
448.0000	67.5629
447.0000	68.2292
446.0000	69.9035
445.0000	70.6611
444.0000	69.5623
443.0000	67.7508
442.0000	67.1587
441.0000	68.3209
440.0000	69.7561
439.0000	69.6756
438.0000	68.0867
437.0000	66.7599
436.0000	67.1282
435.0000	68.5413
434.0000	69.1227
433.0000	67.967
432.0000	66.4454
431.0000	66.29
430.0000	67.4975
429.0000	68.2712
428.0000	67.4253
427.0000	65.9638
426.0000	65.7143
425.0000	66.7943
424.0000	67.4488
423.0000	66.5643
422.0000	65.2878
421.0000	65.2801
420.0000	66.1801
419.0000	66.3428
418.0000	65.2449
417.0000	64.3398
416.0000	64.7308
415.0000	65.4513
414.0000	65.0265
413.0000	63.9036
412.0000	63.5807
411.0000	64.2004
410.0000	64.3126
409.0000	63.421
408.0000	62.7949
407.0000	63.1028
406.0000	63.298
405.0000	62.6242
404.0000	61.9918
403.0000	62.1093
402.0000	62.1689
401.0000	61.5904
400.0000	61.1495
399.0000	61.2476
398.0000	61.1146
397.0000	60.4226
396.0000	59.9064
395.0000	59.808
394.0000	59.5048
393.0000	58.9953
392.0000	58.6636
391.0000	58.394
390.0000	57.9805
389.0000	57.5429
388.0000	57.1903
387.0000	56.8272
386.0000	56.354
385.0000	55.8784
384.0000	55.4779
383.0000	55.0093
382.0000	54.4507
381.0000	53.9866
380.0000	53.4341
379.0000	52.7814
378.0000	52.1782
377.0000	51.4454
376.0000	50.638
375.0000	49.747
374.0000	48.5388
373.0000	46.9648
372.0000	44.7457
371.0000	41.5342
370.0000	36.7562
369.0000	30.7954
368.0000	23.5075
367.0000	15.6996
366.0000	8.76525
365.0000	3.85504
364.0000	1.23845
363.0000	0.2715
362.0000	0.0494208
361.0000	0.0201459
360.0000	0.0163696
359.0000	0.0118944
358.0000	0.00976013
357.0000	0.00786428
356.0000	0.00762265
355.0000	0.00833116
354.0000	0.00669287
353.0000	0.00622608
352.0000	0.00315518
351.0000	0.00291428
350.0000	0.00242592
