TITLE	12_7
DATA TYPE	ULTRAVIOLET SPECTRUM
ORIGIN	JASCO
OWNER	
DATE	21/05/05
TIME	17:25:48
SPECTROMETER/DATA SYSTEM	
RESOLUTION	
DELTAX	-0.1
XUNITS	NANOMETERS
YUNITS	TRANSMITTANCE
FIRSTX	  850.0000
LASTX	  300.0000
NPOINTS	    5501
FIRSTY	    81.22148
MAXY	    84.54522
MINY	     0.14294
XYDATA
850.0000	81.2215
849.9000	81.3336
849.8000	81.3024
849.7000	81.3924
849.6000	81.6145
849.5000	81.8077
849.4000	81.9266
849.3000	82.0885
849.2000	82.3623
849.1000	82.4496
849.0000	82.7409
848.9000	82.8993
848.8000	83.1312
848.7000	83.1819
848.6000	83.288
848.5000	83.4659
848.4000	83.6915
848.3000	83.7546
848.2000	84.0042
848.1000	84.0084
848.0000	84.1487
847.9000	84.1345
847.8000	84.2481
847.7000	84.2606
847.6000	84.2269
847.5000	84.3491
847.4000	84.2101
847.3000	84.5167
847.2000	84.5452
847.1000	84.5433
847.0000	84.5218
846.9000	84.4492
846.8000	84.4073
846.7000	84.3954
846.6000	84.2687
846.5000	84.3253
846.4000	84.1064
846.3000	84.0768
846.2000	83.9524
846.1000	84.0727
846.0000	84.0174
845.9000	83.9027
845.8000	83.9059
845.7000	83.5501
845.6000	83.451
845.5000	83.6003
845.4000	83.5855
845.3000	83.6908
845.2000	83.7482
845.1000	83.5967
845.0000	83.5654
844.9000	83.5061
844.8000	83.7217
844.7000	83.6961
844.6000	83.6048
844.5000	83.5716
844.4000	83.5234
844.3000	83.4681
844.2000	83.4269
844.1000	83.4879
844.0000	83.4649
843.9000	83.2906
843.8000	83.3712
843.7000	83.1989
843.6000	83.0279
843.5000	83.174
843.4000	83.0526
843.3000	82.9938
843.2000	82.8121
843.1000	82.8306
843.0000	82.5992
842.9000	82.4485
842.8000	82.3135
842.7000	82.1494
842.6000	82.0769
842.5000	81.9421
842.4000	81.8515
842.3000	81.8775
842.2000	81.562
842.1000	81.4557
842.0000	81.2205
841.9000	81.012
841.8000	80.8677
841.7000	80.6509
841.6000	80.3894
841.5000	80.0079
841.4000	80.1525
841.3000	80.089
841.2000	80.1942
841.1000	80.1337
841.0000	79.8452
840.9000	79.5312
840.8000	79.331
840.7000	78.9592
840.6000	78.8804
840.5000	78.6104
840.4000	78.5969
840.3000	78.4715
840.2000	78.2174
840.1000	78.0722
840.0000	77.9519
839.9000	77.9104
839.8000	77.6172
839.7000	77.2962
839.6000	76.9498
839.5000	76.6907
839.4000	76.7174
839.3000	76.6345
839.2000	76.594
839.1000	76.5504
839.0000	76.3939
838.9000	76.3794
838.8000	76.1126
838.7000	75.8234
838.6000	75.8747
838.5000	75.7512
838.4000	75.7229
838.3000	75.5357
838.2000	75.4306
838.1000	75.3285
838.0000	75.1292
837.9000	75.2136
837.8000	75.0197
837.7000	74.8715
837.6000	74.7002
837.5000	74.6729
837.4000	74.594
837.3000	74.3756
837.2000	74.327
837.1000	74.3247
837.0000	74.1624
836.9000	73.9377
836.8000	73.8003
836.7000	73.7893
836.6000	73.652
836.5000	73.5215
836.4000	73.5452
836.3000	73.3262
836.2000	73.3223
836.1000	73.3748
836.0000	73.303
835.9000	73.0481
835.8000	73.0574
835.7000	73.1115
835.6000	72.9233
835.5000	72.9492
835.4000	72.8781
835.3000	72.9477
835.2000	72.9072
835.1000	72.9839
835.0000	73.0325
834.9000	73.1341
834.8000	73.1903
834.7000	73.1801
834.6000	73.0579
834.5000	72.9151
834.4000	72.8334
834.3000	72.9365
834.2000	72.7614
834.1000	72.7818
834.0000	72.811
833.9000	72.7001
833.8000	72.7291
833.7000	72.731
833.6000	72.6334
833.5000	72.4474
833.4000	72.4071
833.3000	72.3771
833.2000	72.2643
833.1000	72.2531
833.0000	72.3472
832.9000	72.3871
832.8000	72.511
832.7000	72.5809
832.6000	72.717
832.5000	72.6271
832.4000	72.7376
832.3000	72.8584
832.2000	72.9453
832.1000	72.9406
832.0000	73.0727
831.9000	73.2412
831.8000	73.2654
831.7000	73.2434
831.6000	73.3675
831.5000	73.3863
831.4000	73.461
831.3000	73.6311
831.2000	73.7362
831.1000	73.6977
831.0000	73.7538
830.9000	73.8973
830.8000	74.0574
830.7000	74.0875
830.6000	74.1318
830.5000	74.3792
830.4000	74.5347
830.3000	74.7299
830.2000	74.8222
830.1000	75.05
830.0000	75.2076
829.9000	75.3742
829.8000	75.4853
829.7000	75.5735
829.6000	75.6592
829.5000	75.7443
829.4000	75.9756
829.3000	76.0648
829.2000	76.1806
829.1000	76.3566
829.0000	76.5162
828.9000	76.6047
828.8000	76.6496
828.7000	76.6914
828.6000	76.8462
828.5000	77.01
828.4000	77.0229
828.3000	77.1473
828.2000	77.3019
828.1000	77.4522
828.0000	77.6769
827.9000	77.8653
827.8000	77.8726
827.7000	77.938
827.6000	78.0228
827.5000	78.0578
827.4000	78.1022
827.3000	78.3157
827.2000	78.5189
827.1000	78.5658
827.0000	78.8377
826.9000	78.8578
826.8000	79.086
826.7000	79.1073
826.6000	79.125
826.5000	79.298
826.4000	79.4688
826.3000	79.6579
826.2000	79.7865
826.1000	79.9291
826.0000	80.1237
825.9000	80.2472
825.8000	80.4525
825.7000	80.4577
825.6000	80.5861
825.5000	80.803
825.4000	80.9234
825.3000	81.1941
825.2000	81.3357
825.1000	81.5566
825.0000	81.7409
824.9000	81.9764
824.8000	81.9494
824.7000	81.9578
824.6000	82.1151
824.5000	82.3045
824.4000	82.557
824.3000	82.645
824.2000	82.7823
824.1000	82.9651
824.0000	83.0543
823.9000	83.0749
823.8000	83.0057
823.7000	83.0548
823.6000	83.1385
823.5000	83.2436
823.4000	83.3286
823.3000	83.3037
823.2000	83.322
823.1000	83.5982
823.0000	83.7597
822.9000	84.0428
822.8000	83.7516
822.7000	83.9951
822.6000	84.0563
822.5000	84.0542
822.4000	84.1661
822.3000	84.1492
822.2000	84.3292
822.1000	84.3046
822.0000	84.344
821.9000	84.4237
821.8000	84.4489
821.7000	84.2532
821.6000	84.3124
821.5000	84.2779
821.4000	84.1799
821.3000	83.9578
821.2000	84.128
821.1000	83.9793
821.0000	83.9615
820.9000	83.8628
820.8000	83.913
820.7000	84.0186
820.6000	83.9069
820.5000	83.8332
820.4000	83.7879
820.3000	83.7564
820.2000	83.635
820.1000	83.6875
820.0000	83.6243
819.9000	83.3937
819.8000	83.3677
819.7000	83.3312
819.6000	83.2091
819.5000	83.1476
819.4000	83.1282
819.3000	83.117
819.2000	82.8896
819.1000	82.7644
819.0000	82.6819
818.9000	82.5214
818.8000	82.3774
818.7000	82.173
818.6000	82.1182
818.5000	82.084
818.4000	81.8927
818.3000	81.9412
818.2000	81.7403
818.1000	81.5298
818.0000	81.4672
817.9000	81.2947
817.8000	80.9593
817.7000	80.8102
817.6000	80.616
817.5000	80.4422
817.4000	80.28
817.3000	80.127
817.2000	79.9432
817.1000	79.8426
817.0000	79.6828
816.9000	79.49
816.8000	79.3501
816.7000	79.1296
816.6000	79.0063
816.5000	78.8488
816.4000	78.6184
816.3000	78.3769
816.2000	78.2225
816.1000	78.0292
816.0000	77.9062
815.9000	77.76
815.8000	77.5602
815.7000	77.505
815.6000	77.2996
815.5000	77.0737
815.4000	76.7733
815.3000	76.616
815.2000	76.4831
815.1000	76.3144
815.0000	76.2263
814.9000	76.1332
814.8000	76.0269
814.7000	75.9933
814.6000	75.8168
814.5000	75.7348
814.4000	75.6363
814.3000	75.5482
814.2000	75.4697
814.1000	75.4301
814.0000	75.2936
813.9000	75.2267
813.8000	75.2483
813.7000	75.0928
813.6000	74.9754
813.5000	74.8684
813.4000	74.6954
813.3000	74.4416
813.2000	74.3453
813.1000	74.1749
813.0000	74.1016
812.9000	74.0113
812.8000	73.9117
812.7000	73.6719
812.6000	73.5814
812.5000	73.3608
812.4000	73.2655
812.3000	73.147
812.2000	73.0366
812.1000	72.9006
812.0000	72.7918
811.9000	72.7638
811.8000	72.7784
811.7000	72.8654
811.6000	72.7407
811.5000	72.7629
811.4000	72.7131
811.3000	72.5678
811.2000	72.5154
811.1000	72.5757
811.0000	72.5846
810.9000	72.5905
810.8000	72.6656
810.7000	72.5039
810.6000	72.4431
810.5000	72.5014
810.4000	72.4873
810.3000	72.4147
810.2000	72.2486
810.1000	72.1064
810.0000	72.1052
809.9000	72.1962
809.8000	72.2193
809.7000	72.2995
809.6000	72.282
809.5000	72.2263
809.4000	72.0723
809.3000	72.1035
809.2000	72.1192
809.1000	72.3581
809.0000	72.5226
808.9000	72.4703
808.8000	72.5322
808.7000	72.6428
808.6000	72.7091
808.5000	72.8271
808.4000	72.908
808.3000	72.8726
808.2000	72.9916
808.1000	73.0579
808.0000	73.1942
807.9000	73.3076
807.8000	73.4745
807.7000	73.4391
807.6000	73.5571
807.5000	73.4956
807.4000	73.3727
807.3000	73.5823
807.2000	73.6784
807.1000	73.6441
807.0000	73.7884
806.9000	73.9991
806.8000	74.0792
806.7000	74.1648
806.6000	74.0952
806.5000	74.1752
806.4000	74.291
806.3000	74.4614
806.2000	74.5152
806.1000	74.7619
806.0000	74.736
805.9000	75.104
805.8000	75.3946
805.7000	75.58
805.6000	75.7721
805.5000	76.0759
805.4000	76.176
805.3000	76.208
805.2000	76.3744
805.1000	76.5468
805.0000	76.9341
804.9000	77.1144
804.8000	77.2394
804.7000	77.4071
804.6000	77.6169
804.5000	77.8067
804.4000	77.9964
804.3000	78.0365
804.2000	78.2293
804.1000	78.3356
804.0000	78.5311
803.9000	78.6415
803.8000	78.7978
803.7000	79.1496
803.6000	79.3456
803.5000	79.4733
803.4000	79.5861
803.3000	79.7404
803.2000	79.8334
803.1000	79.9978
803.0000	80.2221
802.9000	80.2173
802.8000	80.5318
802.7000	80.6025
802.6000	80.7622
802.5000	80.9465
802.4000	81.1014
802.3000	81.2129
802.2000	81.4793
802.1000	81.4823
802.0000	81.4718
801.9000	81.5945
801.8000	81.8203
801.7000	82.0568
801.6000	82.2051
801.5000	82.2145
801.4000	82.3242
801.3000	82.5557
801.2000	82.5796
801.1000	82.8057
801.0000	82.9311
800.9000	82.8836
800.8000	82.8082
800.7000	82.8876
800.6000	82.9814
800.5000	83.0214
800.4000	83.3269
800.3000	83.564
800.2000	83.4427
800.1000	83.4545
800.0000	83.5826
799.9000	83.7453
799.8000	83.7659
799.7000	83.6834
799.6000	83.6816
799.5000	83.6147
799.4000	83.6382
799.3000	83.8539
799.2000	83.9686
799.1000	84.0133
799.0000	83.9465
798.9000	83.9921
798.8000	83.9512
798.7000	83.9436
798.6000	83.9387
798.5000	83.973
798.4000	83.9615
798.3000	83.9329
798.2000	83.9183
798.1000	84.0987
798.0000	84.1106
797.9000	84.1797
797.8000	84.0431
797.7000	83.8888
797.6000	83.8768
797.5000	83.7667
797.4000	83.6512
797.3000	83.6105
797.2000	83.3471
797.1000	83.1834
797.0000	83.1081
796.9000	82.9006
796.8000	82.7016
796.7000	82.5772
796.6000	82.4463
796.5000	82.3818
796.4000	82.2978
796.3000	82.1857
796.2000	82.0978
796.1000	81.9209
796.0000	81.7001
795.9000	81.5881
795.8000	81.5305
795.7000	81.3821
795.6000	81.3986
795.5000	81.3069
795.4000	81.2573
795.3000	81.1968
795.2000	81.1564
795.1000	81.0988
795.0000	81.042
794.9000	80.7397
794.8000	80.5061
794.7000	80.3279
794.6000	80.1476
794.5000	80.1216
794.4000	80.0634
794.3000	79.9217
794.2000	79.8102
794.1000	79.6989
794.0000	79.5911
793.9000	79.4231
793.8000	79.2982
793.7000	79.1352
793.6000	78.9296
793.5000	78.6741
793.4000	78.3989
793.3000	78.2
793.2000	78.0131
793.1000	77.8021
793.0000	77.6476
792.9000	77.3829
792.8000	77.0614
792.7000	76.7991
792.6000	76.4625
792.5000	76.2511
792.4000	75.9438
792.3000	75.7502
792.2000	75.5158
792.1000	75.2805
792.0000	75.0367
791.9000	74.8272
791.8000	74.6832
791.7000	74.6853
791.6000	74.5778
791.5000	74.5085
791.4000	74.4233
791.3000	74.4098
791.2000	74.3356
791.1000	74.2014
791.0000	74.2189
790.9000	74.0448
790.8000	74.0316
790.7000	73.945
790.6000	73.7306
790.5000	73.679
790.4000	73.7066
790.3000	73.7255
790.2000	73.6616
790.1000	73.4264
790.0000	73.3865
789.9000	73.2308
789.8000	73.0308
789.7000	72.8531
789.6000	72.8335
789.5000	72.8082
789.4000	72.7177
789.3000	72.721
789.2000	72.6504
789.1000	72.5407
789.0000	72.6077
788.9000	72.5583
788.8000	72.4086
788.7000	72.2797
788.6000	72.2208
788.5000	72.2165
788.4000	72.1932
788.3000	72.3304
788.2000	72.3433
788.1000	72.2031
788.0000	72.1986
787.9000	72.2825
787.8000	72.206
787.7000	72.237
787.6000	72.2138
787.5000	72.2185
787.4000	72.2455
787.3000	72.1712
787.2000	72.2834
787.1000	72.3453
787.0000	72.3927
786.9000	72.5168
786.8000	72.5129
786.7000	72.413
786.6000	72.5219
786.5000	72.7514
786.4000	72.8544
786.3000	72.9319
786.2000	73.0535
786.1000	73.0132
786.0000	73.0619
785.9000	73.1739
785.8000	73.2246
785.7000	73.4026
785.6000	73.4864
785.5000	73.6342
785.4000	73.8001
785.3000	73.845
785.2000	73.9454
785.1000	74.0732
785.0000	74.1683
784.9000	74.2426
784.8000	74.3104
784.7000	74.3362
784.6000	74.4299
784.5000	74.5626
784.4000	74.6502
784.3000	74.7394
784.2000	74.9401
784.1000	74.9905
784.0000	75.0771
783.9000	75.1221
783.8000	75.2386
783.7000	75.363
783.6000	75.5277
783.5000	75.6451
783.4000	75.7212
783.3000	75.9803
783.2000	76.1449
783.1000	76.3321
783.0000	76.5429
782.9000	76.704
782.8000	76.9171
782.7000	77.103
782.6000	77.1684
782.5000	77.3155
782.4000	77.4552
782.3000	77.667
782.2000	77.8481
782.1000	77.9685
782.0000	78.1877
781.9000	78.3341
781.8000	78.6409
781.7000	78.6141
781.6000	78.6781
781.5000	78.8486
781.4000	79.026
781.3000	79.2614
781.2000	79.412
781.1000	79.5925
781.0000	79.7486
780.9000	80.015
780.8000	80.2766
780.7000	80.5324
780.6000	80.585
780.5000	80.7343
780.4000	80.8238
780.3000	80.9551
780.2000	81.0254
780.1000	81.3008
780.0000	81.4806
779.9000	81.6024
779.8000	81.7004
779.7000	81.7327
779.6000	81.8356
779.5000	81.9471
779.4000	82.1123
779.3000	82.1819
779.2000	82.2623
779.1000	82.2703
779.0000	82.4063
778.9000	82.5053
778.8000	82.5638
778.7000	82.7701
778.6000	82.7581
778.5000	82.7924
778.4000	82.9673
778.3000	83.0473
778.2000	83.1627
778.1000	83.3611
778.0000	83.4536
777.9000	83.4577
777.8000	83.5053
777.7000	83.5523
777.6000	83.621
777.5000	83.6408
777.4000	83.7068
777.3000	83.6792
777.2000	83.6878
777.1000	83.6587
777.0000	83.7675
776.9000	83.7566
776.8000	83.679
776.7000	83.7582
776.6000	83.6863
776.5000	83.583
776.4000	83.5066
776.3000	83.5215
776.2000	83.4228
776.1000	83.4329
776.0000	83.2673
775.9000	83.2105
775.8000	83.0834
775.7000	83.062
775.6000	83.0202
775.5000	82.8565
775.4000	82.7201
775.3000	82.6984
775.2000	82.6867
775.1000	82.5355
775.0000	82.4303
774.9000	82.2844
774.8000	82.2332
774.7000	82.1091
774.6000	81.9042
774.5000	81.7476
774.4000	81.6361
774.3000	81.4571
774.2000	81.3935
774.1000	81.242
774.0000	81.1398
773.9000	80.9736
773.8000	80.821
773.7000	80.5488
773.6000	80.3056
773.5000	80.1379
773.4000	79.9944
773.3000	79.9296
773.2000	79.7263
773.1000	79.5322
773.0000	79.4674
772.9000	79.2571
772.8000	79.0215
772.7000	78.8677
772.6000	78.5753
772.5000	78.501
772.4000	78.202
772.3000	78.0505
772.2000	77.9417
772.1000	77.8291
772.0000	77.6831
771.9000	77.5643
771.8000	77.3035
771.7000	77.1017
771.6000	76.9699
771.5000	76.8293
771.4000	76.6516
771.3000	76.5092
771.2000	76.4197
771.1000	76.2151
771.0000	76.1415
770.9000	75.9111
770.8000	75.8208
770.7000	75.7537
770.6000	75.5615
770.5000	75.3296
770.4000	75.1346
770.3000	74.8897
770.2000	74.7685
770.1000	74.5904
770.0000	74.4179
769.9000	74.2527
769.8000	74.136
769.7000	73.9494
769.6000	73.8698
769.5000	73.757
769.4000	73.5831
769.3000	73.4188
769.2000	73.2951
769.1000	73.0751
769.0000	72.9977
768.9000	72.9489
768.8000	72.8864
768.7000	72.8122
768.6000	72.702
768.5000	72.5783
768.4000	72.5265
768.3000	72.4014
768.2000	72.3009
768.1000	72.2508
768.0000	72.0592
767.9000	71.9191
767.8000	71.8628
767.7000	71.819
767.6000	71.8064
767.5000	71.8294
767.4000	71.8243
767.3000	71.7972
767.2000	71.6856
767.1000	71.6647
767.0000	71.6785
766.9000	71.7336
766.8000	71.6441
766.7000	71.6892
766.6000	71.7203
766.5000	71.6951
766.4000	71.7555
766.3000	71.8601
766.2000	71.9111
766.1000	71.9706
766.0000	71.9734
765.9000	72.0223
765.8000	72.035
765.7000	71.9892
765.6000	72.0909
765.5000	72.1196
765.4000	72.1447
765.3000	72.2063
765.2000	72.3324
765.1000	72.4031
765.0000	72.4776
764.9000	72.5812
764.8000	72.6798
764.7000	72.7879
764.6000	72.8952
764.5000	72.9859
764.4000	73.0452
764.3000	73.1708
764.2000	73.2258
764.1000	73.3359
764.0000	73.4694
763.9000	73.5143
763.8000	73.6052
763.7000	73.6289
763.6000	73.7759
763.5000	73.8718
763.4000	73.9382
763.3000	74.0609
763.2000	74.2479
763.1000	74.3265
763.0000	74.4515
762.9000	74.6157
762.8000	74.811
762.7000	74.8502
762.6000	74.9888
762.5000	75.2657
762.4000	75.4764
762.3000	75.8025
762.2000	75.9951
762.1000	76.2414
762.0000	76.3849
761.9000	76.5723
761.8000	76.7764
761.7000	76.9788
761.6000	77.085
761.5000	77.3272
761.4000	77.4229
761.3000	77.5813
761.2000	77.7167
761.1000	77.9937
761.0000	78.207
760.9000	78.3065
760.8000	78.3999
760.7000	78.4485
760.6000	78.6831
760.5000	78.8591
760.4000	79.0176
760.3000	79.2205
760.2000	79.4057
760.1000	79.5928
760.0000	79.8105
759.9000	79.9938
759.8000	80.2422
759.7000	80.4481
759.6000	80.5768
759.5000	80.6767
759.4000	80.9072
759.3000	81.1127
759.2000	81.2568
759.1000	81.4697
759.0000	81.5593
758.9000	81.6409
758.8000	81.7344
758.7000	81.8481
758.6000	82.0075
758.5000	82.0624
758.4000	82.139
758.3000	82.1194
758.2000	82.2441
758.1000	82.2788
758.0000	82.3935
757.9000	82.5285
757.8000	82.4385
757.7000	82.5364
757.6000	82.5891
757.5000	82.6023
757.4000	82.6858
757.3000	82.7748
757.2000	82.8929
757.1000	82.9519
757.0000	82.9452
756.9000	83.0331
756.8000	83.0504
756.7000	83.174
756.6000	83.1377
756.5000	83.1657
756.4000	83.2348
756.3000	83.1745
756.2000	83.2739
756.1000	83.2316
756.0000	83.3227
755.9000	83.37
755.8000	83.2889
755.7000	83.2668
755.6000	83.2315
755.5000	83.1429
755.4000	83.084
755.3000	82.928
755.2000	82.8353
755.1000	82.7037
755.0000	82.6473
754.9000	82.6007
754.8000	82.4229
754.7000	82.3721
754.6000	82.1847
754.5000	82.0416
754.4000	81.8152
754.3000	81.5439
754.2000	81.4593
754.1000	81.3194
754.0000	81.1322
753.9000	80.9586
753.8000	80.8602
753.7000	80.7395
753.6000	80.6644
753.5000	80.51
753.4000	80.2692
753.3000	79.9937
753.2000	79.8718
753.1000	79.6953
753.0000	79.6325
752.9000	79.4299
752.8000	79.275
752.7000	79.165
752.6000	78.9163
752.5000	78.7031
752.4000	78.5517
752.3000	78.3848
752.2000	78.1399
752.1000	77.946
752.0000	77.6615
751.9000	77.4493
751.8000	77.3448
751.7000	77.197
751.6000	76.975
751.5000	76.6902
751.4000	76.4703
751.3000	76.2781
751.2000	76.0849
751.1000	75.8392
751.0000	75.7116
750.9000	75.492
750.8000	75.2104
750.7000	75.117
750.6000	74.9636
750.5000	74.9231
750.4000	74.8394
750.3000	74.6953
750.2000	74.5081
750.1000	74.3167
750.0000	74.1348
749.9000	73.9488
749.8000	73.7724
749.7000	73.6562
749.6000	73.4734
749.5000	73.4399
749.4000	73.3238
749.3000	73.1948
749.2000	73.1247
749.1000	72.9147
749.0000	72.7864
748.9000	72.5809
748.8000	72.4121
748.7000	72.2462
748.6000	72.1069
748.5000	72.0532
748.4000	71.9679
748.3000	71.9679
748.2000	71.8462
748.1000	71.7734
748.0000	71.6721
747.9000	71.5165
747.8000	71.514
747.7000	71.5286
747.6000	71.4597
747.5000	71.4494
747.4000	71.3886
747.3000	71.3071
747.2000	71.2404
747.1000	71.2494
747.0000	71.2093
746.9000	71.1392
746.8000	71.1516
746.7000	71.1224
746.6000	71.1638
746.5000	71.1625
746.4000	71.2518
746.3000	71.3343
746.2000	71.2398
746.1000	71.2226
746.0000	71.2688
745.9000	71.265
745.8000	71.2635
745.7000	71.326
745.6000	71.3976
745.5000	71.4628
745.4000	71.5891
745.3000	71.7361
745.2000	71.7902
745.1000	71.8582
745.0000	71.8974
744.9000	71.9725
744.8000	72.1043
744.7000	72.2089
744.6000	72.3605
744.5000	72.4365
744.4000	72.5121
744.3000	72.6554
744.2000	72.8695
744.1000	72.9931
744.0000	73.1183
743.9000	73.2494
743.8000	73.349
743.7000	73.4082
743.6000	73.642
743.5000	73.777
743.4000	74.028
743.3000	74.1897
743.2000	74.2142
743.1000	74.3973
743.0000	74.4749
742.9000	74.6874
742.8000	74.942
742.7000	75.1208
742.6000	75.2646
742.5000	75.4977
742.4000	75.7015
742.3000	75.9273
742.2000	76.1678
742.1000	76.3516
742.0000	76.4958
741.9000	76.7217
741.8000	76.8932
741.7000	77.0944
741.6000	77.3662
741.5000	77.4836
741.4000	77.8145
741.3000	78.0129
741.2000	78.1272
741.1000	78.2926
741.0000	78.5726
740.9000	78.6798
740.8000	78.8893
740.7000	79.1007
740.6000	79.2733
740.5000	79.5098
740.4000	79.5991
740.3000	79.8696
740.2000	79.9817
740.1000	80.1758
740.0000	80.0359
739.9000	80.2268
739.8000	80.4158
739.7000	80.5676
739.6000	80.7014
739.5000	80.9173
739.4000	81.0909
739.3000	81.2311
739.2000	81.4427
739.1000	81.601
739.0000	81.7504
738.9000	81.8179
738.8000	82.0059
738.7000	82.1329
738.6000	82.2413
738.5000	82.445
738.4000	82.5992
738.3000	82.6805
738.2000	82.7101
738.1000	82.7499
738.0000	82.8672
737.9000	82.8737
737.8000	82.8783
737.7000	82.9356
737.6000	82.9923
737.5000	82.9395
737.4000	82.963
737.3000	83.024
737.2000	83.0023
737.1000	83.014
737.0000	83.0612
736.9000	82.8894
736.8000	82.8755
736.7000	82.7804
736.6000	82.7298
736.5000	82.715
736.4000	82.5713
736.3000	82.5657
736.2000	82.4811
736.1000	82.3976
736.0000	82.2843
735.9000	82.2942
735.8000	82.1763
735.7000	82.0491
735.6000	81.9599
735.5000	81.8258
735.4000	81.632
735.3000	81.5476
735.2000	81.4027
735.1000	81.3501
735.0000	81.2262
734.9000	81.0538
734.8000	80.9604
734.7000	80.7383
734.6000	80.5806
734.5000	80.415
734.4000	80.204
734.3000	80.0693
734.2000	79.8852
734.1000	79.7468
734.0000	79.5375
733.9000	79.3626
733.8000	79.2553
733.7000	79.0912
733.6000	78.906
733.5000	78.7381
733.4000	78.6
733.3000	78.3865
733.2000	78.1276
733.1000	77.88
733.0000	77.7089
732.9000	77.5483
732.8000	77.3302
732.7000	77.0953
732.6000	76.9591
732.5000	76.7145
732.4000	76.5434
732.3000	76.3619
732.2000	76.1767
732.1000	75.9773
732.0000	75.7348
731.9000	75.5186
731.8000	75.3505
731.7000	75.2427
731.6000	75.0515
731.5000	74.8936
731.4000	74.6642
731.3000	74.453
731.2000	74.2981
731.1000	74.0763
731.0000	73.8259
730.9000	73.6727
730.8000	73.4865
730.7000	73.2518
730.6000	73.0729
730.5000	72.9489
730.4000	72.8314
730.3000	72.6424
730.2000	72.4411
730.1000	72.2824
730.0000	72.1725
729.9000	72.0664
729.8000	71.9674
729.7000	71.8313
729.6000	71.7027
729.5000	71.6316
729.4000	71.6132
729.3000	71.517
729.2000	71.4678
729.1000	71.3851
729.0000	71.2583
728.9000	71.1934
728.8000	71.1624
728.7000	71.1311
728.6000	71.1012
728.5000	71.0121
728.4000	70.9943
728.3000	70.9154
728.2000	70.8736
728.1000	70.8091
728.0000	70.8462
727.9000	70.8094
727.8000	70.726
727.7000	70.7517
727.6000	70.7371
727.5000	70.7703
727.4000	70.8522
727.3000	70.872
727.2000	70.893
727.1000	70.9068
727.0000	70.8652
726.9000	70.9374
726.8000	70.9327
726.7000	70.9943
726.6000	71.0578
726.5000	71.1423
726.4000	71.1795
726.3000	71.2623
726.2000	71.3606
726.1000	71.4189
726.0000	71.5028
725.9000	71.6296
725.8000	71.7097
725.7000	71.7934
725.6000	71.8073
725.5000	71.8778
725.4000	72.0914
725.3000	72.2013
725.2000	72.3778
725.1000	72.4928
725.0000	72.6706
724.9000	72.8188
724.8000	72.9493
724.7000	73.1299
724.6000	73.3233
724.5000	73.5519
724.4000	73.6899
724.3000	73.8414
724.2000	73.9981
724.1000	74.1585
724.0000	74.4132
723.9000	74.6738
723.8000	74.8403
723.7000	74.9895
723.6000	75.1258
723.5000	75.3604
723.4000	75.5472
723.3000	75.7869
723.2000	76.0694
723.1000	76.2397
723.0000	76.397
722.9000	76.5475
722.8000	76.7835
722.7000	76.9163
722.6000	77.1474
722.5000	77.3842
722.4000	77.5709
722.3000	77.7574
722.2000	77.9716
722.1000	78.2089
722.0000	78.4331
721.9000	78.6237
721.8000	78.7813
721.7000	78.9703
721.6000	79.1007
721.5000	79.3517
721.4000	79.5399
721.3000	79.7546
721.2000	79.9348
721.1000	80.1773
721.0000	80.3095
720.9000	80.442
720.8000	80.6125
720.7000	80.7606
720.6000	80.8913
720.5000	81.0445
720.4000	81.1674
720.3000	81.2654
720.2000	81.4053
720.1000	81.5259
720.0000	81.6093
719.9000	81.6787
719.8000	81.8109
719.7000	81.8279
719.6000	81.9407
719.5000	82.0128
719.4000	82.1485
719.3000	82.2611
719.2000	82.311
719.1000	82.4021
719.0000	82.4182
718.9000	82.4956
718.8000	82.4966
718.7000	82.5033
718.6000	82.517
718.5000	82.4578
718.4000	82.4492
718.3000	82.4308
718.2000	82.4443
718.1000	82.419
718.0000	82.3102
717.9000	82.2477
717.8000	82.0978
717.7000	81.9969
717.6000	81.9494
717.5000	81.8076
717.4000	81.7583
717.3000	81.5851
717.2000	81.5244
717.1000	81.4794
717.0000	81.3375
716.9000	81.2485
716.8000	81.1501
716.7000	81.0287
716.6000	80.8304
716.5000	80.7217
716.4000	80.6112
716.3000	80.4672
716.2000	80.3121
716.1000	80.1291
716.0000	79.9327
715.9000	79.7657
715.8000	79.5768
715.7000	79.3976
715.6000	79.1855
715.5000	78.9596
715.4000	78.7474
715.3000	78.5315
715.2000	78.313
715.1000	78.0939
715.0000	77.9007
714.9000	77.6981
714.8000	77.4434
714.7000	77.2012
714.6000	77.0114
714.5000	76.7856
714.4000	76.5552
714.3000	76.3366
714.2000	76.1294
714.1000	75.9091
714.0000	75.6575
713.9000	75.4377
713.8000	75.2368
713.7000	74.9906
713.6000	74.7927
713.5000	74.5847
713.4000	74.3594
713.3000	74.1176
713.2000	73.9456
713.1000	73.7408
713.0000	73.4965
712.9000	73.2923
712.8000	73.1359
712.7000	72.9891
712.6000	72.7438
712.5000	72.5893
712.4000	72.4502
712.3000	72.2689
712.2000	72.1168
712.1000	71.9813
712.0000	71.7988
711.9000	71.6236
711.8000	71.5025
711.7000	71.3907
711.6000	71.2372
711.5000	71.1116
711.4000	71.026
711.3000	70.9114
711.2000	70.7138
711.1000	70.5754
711.0000	70.5216
710.9000	70.4315
710.8000	70.3305
710.7000	70.2465
710.6000	70.1556
710.5000	70.1062
710.4000	70.0094
710.3000	69.9488
710.2000	69.8925
710.1000	69.8445
710.0000	69.7796
709.9000	69.77
709.8000	69.775
709.7000	69.8394
709.6000	69.8912
709.5000	69.8738
709.4000	69.8686
709.3000	69.8537
709.2000	69.9291
709.1000	70.0001
709.0000	70.0093
708.9000	70.0602
708.8000	70.1422
708.7000	70.2322
708.6000	70.2964
708.5000	70.3525
708.4000	70.4438
708.3000	70.5171
708.2000	70.5963
708.1000	70.6358
708.0000	70.7501
707.9000	70.8963
707.8000	71.0507
707.7000	71.2167
707.6000	71.3444
707.5000	71.4664
707.4000	71.661
707.3000	71.7715
707.2000	71.9568
707.1000	72.1297
707.0000	72.2678
706.9000	72.4718
706.8000	72.702
706.7000	72.9385
706.6000	73.1447
706.5000	73.3542
706.4000	73.448
706.3000	73.6053
706.2000	73.7818
706.1000	73.946
706.0000	74.1385
705.9000	74.3432
705.8000	74.5447
705.7000	74.7578
705.6000	74.9268
705.5000	75.1317
705.4000	75.3829
705.3000	75.5907
705.2000	75.8282
705.1000	75.9625
705.0000	76.1742
704.9000	76.3673
704.8000	76.6779
704.7000	76.905
704.6000	77.1543
704.5000	77.3661
704.4000	77.5677
704.3000	77.8243
704.2000	78.0313
704.1000	78.2901
704.0000	78.5341
703.9000	78.7651
703.8000	78.9532
703.7000	79.1091
703.6000	79.2979
703.5000	79.5343
703.4000	79.7648
703.3000	79.9449
703.2000	80.1538
703.1000	80.3667
703.0000	80.5236
702.9000	80.7088
702.8000	80.8597
702.7000	81.0184
702.6000	81.1879
702.5000	81.3089
702.4000	81.4612
702.3000	81.5653
702.2000	81.6887
702.1000	81.8236
702.0000	81.8582
701.9000	81.937
701.8000	82.0223
701.7000	82.1223
701.6000	82.1308
701.5000	82.1573
701.4000	82.1744
701.3000	82.1848
701.2000	82.2015
701.1000	82.1419
701.0000	82.1107
700.9000	82.1047
700.8000	82.0761
700.7000	81.9976
700.6000	81.9008
700.5000	81.8553
700.4000	81.8206
700.3000	81.7482
700.2000	81.6214
700.1000	81.5328
700.0000	81.4532
699.9000	81.318
699.8000	81.214
699.7000	81.113
699.6000	80.9999
699.5000	80.8656
699.4000	80.7349
699.3000	80.5571
699.2000	80.3932
699.1000	80.252
699.0000	80.1072
698.9000	79.9017
698.8000	79.6931
698.7000	79.5028
698.6000	79.2712
698.5000	79.031
698.4000	78.8045
698.3000	78.6346
698.2000	78.3886
698.1000	78.1599
698.0000	77.93
697.9000	77.6866
697.8000	77.4773
697.7000	77.2555
697.6000	77.0182
697.5000	76.7695
697.4000	76.5724
697.3000	76.3272
697.2000	76.1013
697.1000	75.892
697.0000	75.6661
696.9000	75.465
696.8000	75.2625
696.7000	74.9922
696.6000	74.7832
696.5000	74.5606
696.4000	74.3625
696.3000	74.1364
696.2000	73.868
696.1000	73.7039
696.0000	73.4832
695.9000	73.2759
695.8000	73.0794
695.7000	72.9198
695.6000	72.736
695.5000	72.5145
695.4000	72.3584
695.3000	72.1673
695.2000	71.9931
695.1000	71.8629
695.0000	71.6954
694.9000	71.5275
694.8000	71.3587
694.7000	71.2575
694.6000	71.1361
694.5000	70.9923
694.4000	70.8443
694.3000	70.7166
694.2000	70.5594
694.1000	70.4347
694.0000	70.334
693.9000	70.2777
693.8000	70.1826
693.7000	70.1132
693.6000	70.0196
693.5000	69.8943
693.4000	69.834
693.3000	69.8116
693.2000	69.7564
693.1000	69.7247
693.0000	69.7061
692.9000	69.6755
692.8000	69.6642
692.7000	69.6464
692.6000	69.6536
692.5000	69.6676
692.4000	69.6501
692.3000	69.6315
692.2000	69.686
692.1000	69.6998
692.0000	69.7581
691.9000	69.8322
691.8000	69.8977
691.7000	69.9791
691.6000	70.0686
691.5000	70.1303
691.4000	70.2462
691.3000	70.3097
691.2000	70.4007
691.1000	70.5351
691.0000	70.6648
690.9000	70.7673
690.8000	70.9426
690.7000	71.0952
690.6000	71.2101
690.5000	71.3824
690.4000	71.5574
690.3000	71.7283
690.2000	71.9059
690.1000	72.0671
690.0000	72.2337
689.9000	72.4041
689.8000	72.5899
689.7000	72.7766
689.6000	73.0291
689.5000	73.2564
689.4000	73.4576
689.3000	73.6926
689.2000	73.9239
689.1000	74.1833
689.0000	74.4266
688.9000	74.6448
688.8000	74.8987
688.7000	75.1496
688.6000	75.3911
688.5000	75.6308
688.4000	75.8969
688.3000	76.1435
688.2000	76.3775
688.1000	76.6253
688.0000	76.8501
687.9000	77.0825
687.8000	77.2993
687.7000	77.549
687.6000	77.7454
687.5000	77.9088
687.4000	78.1228
687.3000	78.3858
687.2000	78.5808
687.1000	78.7887
687.0000	78.987
686.9000	79.1805
686.8000	79.379
686.7000	79.5902
686.6000	79.7617
686.5000	80.004
686.4000	80.2435
686.3000	80.4108
686.2000	80.6213
686.1000	80.7602
686.0000	80.9147
685.9000	81.1457
685.8000	81.2852
685.7000	81.4286
685.6000	81.5035
685.5000	81.6389
685.4000	81.7326
685.3000	81.838
685.2000	81.9532
685.1000	82.0362
685.0000	82.1422
684.9000	82.1132
684.8000	82.1065
684.7000	82.1411
684.6000	82.1342
684.5000	82.1458
684.4000	82.1504
684.3000	82.0984
684.2000	82.0665
684.1000	82.0019
684.0000	81.9628
683.9000	81.9048
683.8000	81.8491
683.7000	81.7808
683.6000	81.6442
683.5000	81.5081
683.4000	81.3615
683.3000	81.264
683.2000	81.1501
683.1000	81.0427
683.0000	80.9213
682.9000	80.8302
682.8000	80.6469
682.7000	80.538
682.6000	80.348
682.5000	80.1831
682.4000	80.0576
682.3000	79.832
682.2000	79.649
682.1000	79.4726
682.0000	79.2754
681.9000	79.102
681.8000	78.9089
681.7000	78.7128
681.6000	78.4309
681.5000	78.196
681.4000	77.9761
681.3000	77.7086
681.2000	77.4897
681.1000	77.2022
681.0000	77.0088
680.9000	76.7761
680.8000	76.5089
680.7000	76.2843
680.6000	76.0391
680.5000	75.7697
680.4000	75.5171
680.3000	75.2763
680.2000	75.0223
680.1000	74.7669
680.0000	74.5973
679.9000	74.347
679.8000	74.1268
679.7000	73.9031
679.6000	73.7012
679.5000	73.4646
679.4000	73.2574
679.3000	73.0327
679.2000	72.8018
679.1000	72.6331
679.0000	72.4505
678.9000	72.2409
678.8000	72.0876
678.7000	71.8912
678.6000	71.7092
678.5000	71.5696
678.4000	71.3756
678.3000	71.2281
678.2000	71.0175
678.1000	70.8644
678.0000	70.7279
677.9000	70.6075
677.8000	70.4623
677.7000	70.3606
677.6000	70.2903
677.5000	70.1745
677.4000	70.0578
677.3000	70.0435
677.2000	69.9426
677.1000	69.926
677.0000	69.8797
676.9000	69.8387
676.8000	69.8113
676.7000	69.815
676.6000	69.8632
676.5000	69.8943
676.4000	69.8903
676.3000	69.9066
676.2000	69.9526
676.1000	70.0153
676.0000	70.0185
675.9000	70.0369
675.8000	70.1534
675.7000	70.1581
675.6000	70.2456
675.5000	70.3214
675.4000	70.4096
675.3000	70.5016
675.2000	70.6398
675.1000	70.7244
675.0000	70.8298
674.9000	70.9643
674.8000	71.1084
674.7000	71.2922
674.6000	71.4363
674.5000	71.5366
674.4000	71.728
674.3000	71.915
674.2000	72.0611
674.1000	72.2642
674.0000	72.4692
673.9000	72.6425
673.8000	72.8902
673.7000	73.1108
673.6000	73.282
673.5000	73.5233
673.4000	73.7303
673.3000	73.9359
673.2000	74.1387
673.1000	74.331
673.0000	74.588
672.9000	74.8196
672.8000	75.0795
672.7000	75.3349
672.6000	75.6289
672.5000	75.8831
672.4000	76.1111
672.3000	76.3465
672.2000	76.534
672.1000	76.7787
672.0000	77.0498
671.9000	77.2972
671.8000	77.5584
671.7000	77.7779
671.6000	78.0377
671.5000	78.3053
671.4000	78.4971
671.3000	78.7636
671.2000	78.9558
671.1000	79.1837
671.0000	79.3376
670.9000	79.576
670.8000	79.7833
670.7000	79.9937
670.6000	80.1934
670.5000	80.3523
670.4000	80.5452
670.3000	80.7211
670.2000	80.8711
670.1000	81.0665
670.0000	81.1981
669.9000	81.3217
669.8000	81.4544
669.7000	81.5811
669.6000	81.7412
669.5000	81.7862
669.4000	81.8952
669.3000	81.911
669.2000	81.9878
669.1000	82.1163
669.0000	82.1958
668.9000	82.2456
668.8000	82.2664
668.7000	82.2576
668.6000	82.2699
668.5000	82.2464
668.4000	82.2219
668.3000	82.1788
668.2000	82.1525
668.1000	82.0519
668.0000	81.954
667.9000	81.9557
667.8000	81.865
667.7000	81.7756
667.6000	81.6937
667.5000	81.4826
667.4000	81.2926
667.3000	81.1528
667.2000	81.0048
667.1000	80.8696
667.0000	80.7
666.9000	80.5399
666.8000	80.3777
666.7000	80.1961
666.6000	80.0204
666.5000	79.8175
666.4000	79.5745
666.3000	79.3298
666.2000	79.1378
666.1000	78.971
666.0000	78.7192
665.9000	78.5129
665.8000	78.3507
665.7000	78.1221
665.6000	77.8677
665.5000	77.6255
665.4000	77.3882
665.3000	77.1337
665.2000	76.8928
665.1000	76.5748
665.0000	76.3146
664.9000	76.086
664.8000	75.812
664.7000	75.5665
664.6000	75.2717
664.5000	74.994
664.4000	74.7353
664.3000	74.5217
664.2000	74.2314
664.1000	73.9527
664.0000	73.713
663.9000	73.475
663.8000	73.2577
663.7000	73.0038
663.6000	72.7973
663.5000	72.6402
663.4000	72.4041
663.3000	72.224
663.2000	72.1106
663.1000	71.952
663.0000	71.7897
662.9000	71.6397
662.8000	71.4973
662.7000	71.3219
662.6000	71.201
662.5000	71.1101
662.4000	71.0001
662.3000	70.8957
662.2000	70.7991
662.1000	70.728
662.0000	70.6306
661.9000	70.5493
661.8000	70.4948
661.7000	70.4104
661.6000	70.3686
661.5000	70.2995
661.4000	70.2682
661.3000	70.1947
661.2000	70.1849
661.1000	70.1415
661.0000	70.1726
660.9000	70.1432
660.8000	70.1293
660.7000	70.1245
660.6000	70.1439
660.5000	70.1642
660.4000	70.2265
660.3000	70.3073
660.2000	70.3903
660.1000	70.4747
660.0000	70.5574
659.9000	70.679
659.8000	70.8119
659.7000	70.9591
659.6000	71.0986
659.5000	71.2947
659.4000	71.4304
659.3000	71.6392
659.2000	71.8455
659.1000	72.0626
659.0000	72.2402
658.9000	72.4435
658.8000	72.6554
658.7000	72.8557
658.6000	73.1009
658.5000	73.3848
658.4000	73.6181
658.3000	73.8409
658.2000	74.0505
658.1000	74.2748
658.0000	74.5023
657.9000	74.7316
657.8000	74.9882
657.7000	75.2605
657.6000	75.5665
657.5000	75.7743
657.4000	76.0727
657.3000	76.3425
657.2000	76.5865
657.1000	76.891
657.0000	77.114
656.9000	77.306
656.8000	77.5461
656.7000	77.8147
656.6000	78.1075
656.5000	78.403
656.4000	78.665
656.3000	78.9201
656.2000	79.1559
656.1000	79.3346
656.0000	79.5177
655.9000	79.8298
655.8000	80.0291
655.7000	80.2636
655.6000	80.4501
655.5000	80.6203
655.4000	80.8644
655.3000	81.04
655.2000	81.2484
655.1000	81.4206
655.0000	81.5542
654.9000	81.6744
654.8000	81.8324
654.7000	81.9502
654.6000	82.0508
654.5000	82.1991
654.4000	82.2472
654.3000	82.2317
654.2000	82.2998
654.1000	82.3064
654.0000	82.356
653.9000	82.3895
653.8000	82.3299
653.7000	82.372
653.6000	82.3294
653.5000	82.2898
653.4000	82.2183
653.3000	82.2018
653.2000	82.0612
653.1000	82.0043
653.0000	81.9081
652.9000	81.7759
652.8000	81.7235
652.7000	81.6435
652.6000	81.5178
652.5000	81.4489
652.4000	81.3085
652.3000	81.1411
652.2000	80.9943
652.1000	80.8562
652.0000	80.6911
651.9000	80.4635
651.8000	80.2974
651.7000	80.0969
651.6000	79.9187
651.5000	79.7042
651.4000	79.4896
651.3000	79.3083
651.2000	79.0814
651.1000	78.8425
651.0000	78.6074
650.9000	78.3299
650.8000	78.1035
650.7000	77.8413
650.6000	77.5667
650.5000	77.2583
650.4000	77.0119
650.3000	76.7992
650.2000	76.5301
650.1000	76.223
650.0000	75.9753
649.9000	75.7182
649.8000	75.4649
649.7000	75.1651
649.6000	74.8965
649.5000	74.6073
649.4000	74.3621
649.3000	74.1513
649.2000	73.9641
649.1000	73.7639
649.0000	73.5791
648.9000	73.3313
648.8000	73.1351
648.7000	72.9176
648.6000	72.7283
648.5000	72.5935
648.4000	72.4083
648.3000	72.2472
648.2000	72.1097
648.1000	71.9772
648.0000	71.8475
647.9000	71.7506
647.8000	71.6416
647.7000	71.4956
647.6000	71.372
647.5000	71.2846
647.4000	71.2009
647.3000	71.1784
647.2000	71.1126
647.1000	71.0666
647.0000	70.9964
646.9000	70.9225
646.8000	70.8808
646.7000	70.8577
646.6000	70.85
646.5000	70.8241
646.4000	70.869
646.3000	70.9248
646.2000	70.9364
646.1000	70.9872
646.0000	71.0426
645.9000	71.0988
645.8000	71.1558
645.7000	71.1871
645.6000	71.2711
645.5000	71.384
645.4000	71.5251
645.3000	71.6733
645.2000	71.8292
645.1000	71.9911
645.0000	72.1555
644.9000	72.3961
644.8000	72.5214
644.7000	72.7179
644.6000	72.9128
644.5000	73.1142
644.4000	73.3045
644.3000	73.4991
644.2000	73.7288
644.1000	73.9731
644.0000	74.1758
643.9000	74.4175
643.8000	74.6577
643.7000	74.8939
643.6000	75.1626
643.5000	75.4131
643.4000	75.6759
643.3000	75.882
643.2000	76.1799
643.1000	76.4334
643.0000	76.7122
642.9000	76.9905
642.8000	77.2308
642.7000	77.4917
642.6000	77.7409
642.5000	78.0791
642.4000	78.3832
642.3000	78.6384
642.2000	78.9408
642.1000	79.1846
642.0000	79.3949
641.9000	79.6069
641.8000	79.8528
641.7000	80.0866
641.6000	80.2555
641.5000	80.4658
641.4000	80.6732
641.3000	80.8671
641.2000	81.1025
641.1000	81.309
641.0000	81.5346
640.9000	81.7059
640.8000	81.8357
640.7000	82.0222
640.6000	82.1332
640.5000	82.2996
640.4000	82.4235
640.3000	82.5417
640.2000	82.6373
640.1000	82.7377
640.0000	82.845
639.9000	82.8818
639.8000	82.9078
639.7000	82.9617
639.6000	82.9273
639.5000	82.8915
639.4000	82.8304
639.3000	82.7924
639.2000	82.7989
639.1000	82.7232
639.0000	82.6324
638.9000	82.5507
638.8000	82.5037
638.7000	82.4073
638.6000	82.2901
638.5000	82.1396
638.4000	81.9671
638.3000	81.8504
638.2000	81.6937
638.1000	81.5064
638.0000	81.3518
637.9000	81.1905
637.8000	81.022
637.7000	80.8063
637.6000	80.5947
637.5000	80.3606
637.4000	80.1154
637.3000	79.895
637.2000	79.6389
637.1000	79.3547
637.0000	79.0372
636.9000	78.7992
636.8000	78.5704
636.7000	78.264
636.6000	78.0261
636.5000	77.7699
636.4000	77.508
636.3000	77.2596
636.2000	76.9777
636.1000	76.731
636.0000	76.452
635.9000	76.2458
635.8000	76.0388
635.7000	75.7516
635.6000	75.5239
635.5000	75.3415
635.4000	75.1443
635.3000	74.9298
635.2000	74.7023
635.1000	74.4714
635.0000	74.2346
634.9000	73.9986
634.8000	73.8187
634.7000	73.6115
634.6000	73.4202
634.5000	73.2198
634.4000	73.0213
634.3000	72.8214
634.2000	72.6448
634.1000	72.5123
634.0000	72.4024
633.9000	72.2628
633.8000	72.1205
633.7000	72.005
633.6000	71.911
633.5000	71.8334
633.4000	71.7549
633.3000	71.703
633.2000	71.6396
633.1000	71.6314
633.0000	71.6314
632.9000	71.5926
632.8000	71.5846
632.7000	71.5708
632.6000	71.5883
632.5000	71.6135
632.4000	71.5956
632.3000	71.6267
632.2000	71.7083
632.1000	71.7526
632.0000	71.8292
631.9000	71.9696
631.8000	72.0911
631.7000	72.175
631.6000	72.2785
631.5000	72.3905
631.4000	72.5285
631.3000	72.6817
631.2000	72.8389
631.1000	73.0067
631.0000	73.1938
630.9000	73.3627
630.8000	73.5886
630.7000	73.8048
630.6000	73.9883
630.5000	74.2215
630.4000	74.4501
630.3000	74.6385
630.2000	74.8615
630.1000	75.1302
630.0000	75.3679
629.9000	75.643
629.8000	75.888
629.7000	76.1306
629.6000	76.3987
629.5000	76.7332
629.4000	77.0285
629.3000	77.3202
629.2000	77.5948
629.1000	77.836
629.0000	78.1574
628.9000	78.4176
628.8000	78.6791
628.7000	78.9863
628.6000	79.249
628.5000	79.5354
628.4000	79.8118
628.3000	80.0353
628.2000	80.3063
628.1000	80.5923
628.0000	80.8497
627.9000	81.0099
627.8000	81.1977
627.7000	81.3981
627.6000	81.5647
627.5000	81.8328
627.4000	82.0018
627.3000	82.192
627.2000	82.3552
627.1000	82.4973
627.0000	82.6982
626.9000	82.7842
626.8000	82.9127
626.7000	83.0187
626.6000	83.0604
626.5000	83.1288
626.4000	83.1752
626.3000	83.2487
626.2000	83.2653
626.1000	83.3262
626.0000	83.3588
625.9000	83.3228
625.8000	83.2805
625.7000	83.2271
625.6000	83.1752
625.5000	83.0806
625.4000	82.9779
625.3000	82.9184
625.2000	82.7903
625.1000	82.6959
625.0000	82.6079
624.9000	82.4716
624.8000	82.3067
624.7000	82.1096
624.6000	81.9854
624.5000	81.7846
624.4000	81.5563
624.3000	81.3152
624.2000	81.1542
624.1000	80.95
624.0000	80.7294
623.9000	80.4839
623.8000	80.2133
623.7000	79.9486
623.6000	79.7013
623.5000	79.4241
623.4000	79.1402
623.3000	78.8829
623.2000	78.6285
623.1000	78.3451
623.0000	78.0723
622.9000	77.8252
622.8000	77.5706
622.7000	77.3247
622.6000	77.0356
622.5000	76.7546
622.4000	76.525
622.3000	76.2878
622.2000	76.0389
622.1000	75.8111
622.0000	75.5565
621.9000	75.3164
621.8000	75.1104
621.7000	74.8502
621.6000	74.677
621.5000	74.4766
621.4000	74.2662
621.3000	74.0691
621.2000	73.8779
621.1000	73.7187
621.0000	73.521
620.9000	73.3773
620.8000	73.2109
620.7000	73.0514
620.6000	72.8754
620.5000	72.759
620.4000	72.6982
620.3000	72.5779
620.2000	72.4819
620.1000	72.4192
620.0000	72.308
619.9000	72.2861
619.8000	72.2228
619.7000	72.1707
619.6000	72.1666
619.5000	72.1751
619.4000	72.2096
619.3000	72.265
619.2000	72.2794
619.1000	72.3561
619.0000	72.4838
618.9000	72.5135
618.8000	72.5496
618.7000	72.667
618.6000	72.774
618.5000	72.8689
618.4000	72.9949
618.3000	73.0898
618.2000	73.2081
618.1000	73.3301
618.0000	73.504
617.9000	73.656
617.8000	73.8228
617.7000	74.0189
617.6000	74.1855
617.5000	74.3453
617.4000	74.5718
617.3000	74.8308
617.2000	75.0715
617.1000	75.3085
617.0000	75.5518
616.9000	75.8233
616.8000	76.0839
616.7000	76.3626
616.6000	76.6867
616.5000	76.9771
616.4000	77.238
616.3000	77.5257
616.2000	77.7881
616.1000	78.0506
616.0000	78.3603
615.9000	78.6301
615.8000	78.855
615.7000	79.1186
615.6000	79.4147
615.5000	79.7218
615.4000	79.9834
615.3000	80.2614
615.2000	80.5146
615.1000	80.7922
615.0000	81.0185
614.9000	81.2696
614.8000	81.5316
614.7000	81.7071
614.6000	81.9476
614.5000	82.1212
614.4000	82.3599
614.3000	82.5931
614.2000	82.8002
614.1000	82.9791
614.0000	83.1195
613.9000	83.1784
613.8000	83.2685
613.7000	83.3748
613.6000	83.4806
613.5000	83.4801
613.4000	83.5469
613.3000	83.5844
613.2000	83.5742
613.1000	83.6124
613.0000	83.5891
612.9000	83.5612
612.8000	83.4774
612.7000	83.3507
612.6000	83.1988
612.5000	83.0926
612.4000	82.9944
612.3000	82.9156
612.2000	82.8045
612.1000	82.6329
612.0000	82.4546
611.9000	82.3162
611.8000	82.0929
611.7000	81.8969
611.6000	81.6812
611.5000	81.4539
611.4000	81.2256
611.3000	80.9771
611.2000	80.7534
611.1000	80.5405
611.0000	80.3406
610.9000	80.0745
610.8000	79.8172
610.7000	79.5219
610.6000	79.2562
610.5000	79.0234
610.4000	78.7106
610.3000	78.4356
610.2000	78.1458
610.1000	77.8608
610.0000	77.577
609.9000	77.2751
609.8000	76.9998
609.7000	76.7705
609.6000	76.4746
609.5000	76.2583
609.4000	76.013
609.3000	75.7569
609.2000	75.4133
609.1000	75.2211
609.0000	74.9881
608.9000	74.7361
608.8000	74.5794
608.7000	74.3626
608.6000	74.2039
608.5000	73.9799
608.4000	73.8229
608.3000	73.7108
608.2000	73.5915
608.1000	73.3833
608.0000	73.238
607.9000	73.1044
607.8000	72.976
607.7000	72.8761
607.6000	72.8363
607.5000	72.7206
607.4000	72.6519
607.3000	72.5749
607.2000	72.5383
607.1000	72.5464
607.0000	72.5094
606.9000	72.551
606.8000	72.5568
606.7000	72.5796
606.6000	72.5726
606.5000	72.6903
606.4000	72.7528
606.3000	72.8336
606.2000	72.8983
606.1000	73.0224
606.0000	73.1552
605.9000	73.3084
605.8000	73.4285
605.7000	73.5836
605.6000	73.7328
605.5000	73.8818
605.4000	74.0634
605.3000	74.2043
605.2000	74.4264
605.1000	74.6284
605.0000	74.891
604.9000	75.0726
604.8000	75.322
604.7000	75.5593
604.6000	75.8343
604.5000	76.0746
604.4000	76.3484
604.3000	76.5871
604.2000	76.8849
604.1000	77.1479
604.0000	77.4381
603.9000	77.7267
603.8000	78.0383
603.7000	78.3633
603.6000	78.6339
603.5000	78.9151
603.4000	79.1529
603.3000	79.4755
603.2000	79.8196
603.1000	80.097
603.0000	80.3548
602.9000	80.603
602.8000	80.8688
602.7000	81.1351
602.6000	81.3556
602.5000	81.6253
602.4000	81.8114
602.3000	82.0404
602.2000	82.2392
602.1000	82.4294
602.0000	82.6658
601.9000	82.8009
601.8000	82.9544
601.7000	83.0563
601.6000	83.1258
601.5000	83.2095
601.4000	83.347
601.3000	83.4196
601.2000	83.4543
601.1000	83.4731
601.0000	83.525
600.9000	83.4947
600.8000	83.4531
600.7000	83.4091
600.6000	83.3577
600.5000	83.2805
600.4000	83.1487
600.3000	83.0414
600.2000	82.9539
600.1000	82.8595
600.0000	82.842
599.9000	82.7241
599.8000	82.5599
599.7000	82.3916
599.6000	82.2142
599.5000	82.0098
599.4000	81.7774
599.3000	81.5576
599.2000	81.3176
599.1000	81.0478
599.0000	80.7719
598.9000	80.504
598.8000	80.2281
598.7000	79.9775
598.6000	79.724
598.5000	79.4397
598.4000	79.1854
598.3000	78.8964
598.2000	78.5927
598.1000	78.281
598.0000	77.9936
597.9000	77.7
597.8000	77.4315
597.7000	77.1579
597.6000	76.8314
597.5000	76.5518
597.4000	76.2792
597.3000	76.0204
597.2000	75.7581
597.1000	75.4953
597.0000	75.2426
596.9000	74.9876
596.8000	74.754
596.7000	74.5136
596.6000	74.311
596.5000	74.0922
596.4000	73.9348
596.3000	73.7678
596.2000	73.5893
596.1000	73.4279
596.0000	73.3133
595.9000	73.1827
595.8000	73.0407
595.7000	72.9418
595.6000	72.8979
595.5000	72.8171
595.4000	72.761
595.3000	72.7365
595.2000	72.7006
595.1000	72.6823
595.0000	72.7021
594.9000	72.6943
594.8000	72.6928
594.7000	72.7341
594.6000	72.7881
594.5000	72.8411
594.4000	72.9514
594.3000	73.0461
594.2000	73.1791
594.1000	73.298
594.0000	73.4318
593.9000	73.5991
593.8000	73.7694
593.7000	73.9449
593.6000	74.0766
593.5000	74.2942
593.4000	74.459
593.3000	74.6936
593.2000	74.8899
593.1000	75.1487
593.0000	75.3801
592.9000	75.7077
592.8000	75.9366
592.7000	76.2196
592.6000	76.4855
592.5000	76.7826
592.4000	77.0245
592.3000	77.31
592.2000	77.5856
592.1000	77.8431
592.0000	78.1931
591.9000	78.4723
591.8000	78.7819
591.7000	79.0853
591.6000	79.4019
591.5000	79.6579
591.4000	79.9252
591.3000	80.1429
591.2000	80.4104
591.1000	80.6881
591.0000	80.9641
590.9000	81.1718
590.8000	81.4421
590.7000	81.668
590.6000	81.8978
590.5000	82.0863
590.4000	82.2532
590.3000	82.4376
590.2000	82.5868
590.1000	82.7006
590.0000	82.7959
589.9000	82.9122
589.8000	83.027
589.7000	83.1071
589.6000	83.16
589.5000	83.1803
589.4000	83.1969
589.3000	83.2572
589.2000	83.2143
589.1000	83.1787
589.0000	83.1383
588.9000	83.1172
588.8000	83.0401
588.7000	82.8915
588.6000	82.8026
588.5000	82.7311
588.4000	82.6
588.3000	82.4018
588.2000	82.2497
588.1000	82.0658
588.0000	81.9189
587.9000	81.6947
587.8000	81.5002
587.7000	81.2245
587.6000	80.9917
587.5000	80.7242
587.4000	80.4374
587.3000	80.1226
587.2000	79.8337
587.1000	79.5582
587.0000	79.25
586.9000	78.9249
586.8000	78.6564
586.7000	78.3583
586.6000	78.0358
586.5000	77.7187
586.4000	77.3572
586.3000	77.0814
586.2000	76.757
586.1000	76.4576
586.0000	76.1597
585.9000	75.9101
585.8000	75.6143
585.7000	75.362
585.6000	75.1283
585.5000	74.8569
585.4000	74.6251
585.3000	74.3876
585.2000	74.1644
585.1000	73.9725
585.0000	73.7813
584.9000	73.5692
584.8000	73.4181
584.7000	73.1959
584.6000	73.025
584.5000	72.8793
584.4000	72.7943
584.3000	72.6877
584.2000	72.6166
584.1000	72.538
584.0000	72.4443
583.9000	72.4293
583.8000	72.3667
583.7000	72.3364
583.6000	72.3015
583.5000	72.3353
583.4000	72.3387
583.3000	72.3979
583.2000	72.4618
583.1000	72.5664
583.0000	72.6846
582.9000	72.7848
582.8000	72.8735
582.7000	72.9534
582.6000	73.0957
582.5000	73.2737
582.4000	73.462
582.3000	73.6333
582.2000	73.8557
582.1000	74.0812
582.0000	74.3096
581.9000	74.4711
581.8000	74.6971
581.7000	74.9476
581.6000	75.1729
581.5000	75.4439
581.4000	75.6912
581.3000	75.9852
581.2000	76.2325
581.1000	76.5226
581.0000	76.8296
580.9000	77.0987
580.8000	77.4304
580.7000	77.7635
580.6000	78.0676
580.5000	78.3719
580.4000	78.6988
580.3000	79.0083
580.2000	79.3429
580.1000	79.6485
580.0000	79.9431
579.9000	80.1954
579.8000	80.4541
579.7000	80.6811
579.6000	80.9455
579.5000	81.1929
579.4000	81.391
579.3000	81.6243
579.2000	81.7799
579.1000	81.9293
579.0000	82.0972
578.9000	82.2362
578.8000	82.381
578.7000	82.5201
578.6000	82.646
578.5000	82.7072
578.4000	82.7544
578.3000	82.8169
578.2000	82.8434
578.1000	82.8878
578.0000	82.9013
577.9000	82.8654
577.8000	82.8157
577.7000	82.7277
577.6000	82.6584
577.5000	82.5638
577.4000	82.3727
577.3000	82.264
577.2000	82.0894
577.1000	81.9191
577.0000	81.6899
576.9000	81.5242
576.8000	81.3324
576.7000	81.1033
576.6000	80.8974
576.5000	80.6482
576.4000	80.3856
576.3000	80.1259
576.2000	79.8164
576.1000	79.5337
576.0000	79.2162
575.9000	78.9051
575.8000	78.6576
575.7000	78.3018
575.6000	77.954
575.5000	77.6571
575.4000	77.3579
575.3000	77.0263
575.2000	76.6869
575.1000	76.421
575.0000	76.1065
574.9000	75.8044
574.8000	75.46
574.7000	75.1898
574.6000	74.9198
574.5000	74.661
574.4000	74.4009
574.3000	74.1815
574.2000	73.9503
574.1000	73.7215
574.0000	73.5007
573.9000	73.2919
573.8000	73.0626
573.7000	72.8644
573.6000	72.7265
573.5000	72.5144
573.4000	72.3315
573.3000	72.1787
573.2000	72.1026
573.1000	71.9841
573.0000	71.943
572.9000	71.8785
572.8000	71.8055
572.7000	71.7473
572.6000	71.7272
572.5000	71.7176
572.4000	71.7461
572.3000	71.747
572.2000	71.8634
572.1000	71.927
572.0000	72.0043
571.9000	72.1086
571.8000	72.2295
571.7000	72.3619
571.6000	72.4798
571.5000	72.6685
571.4000	72.8036
571.3000	72.9454
571.2000	73.1779
571.1000	73.4046
571.0000	73.611
570.9000	73.8851
570.8000	74.1331
570.7000	74.4046
570.6000	74.6452
570.5000	74.9318
570.4000	75.2224
570.3000	75.4994
570.2000	75.846
570.1000	76.1686
570.0000	76.5341
569.9000	76.8518
569.8000	77.2208
569.7000	77.5908
569.6000	77.9295
569.5000	78.2476
569.4000	78.5843
569.3000	78.9189
569.2000	79.2288
569.1000	79.5763
569.0000	79.8499
568.9000	80.1574
568.8000	80.4291
568.7000	80.6921
568.6000	80.9012
568.5000	81.1431
568.4000	81.3127
568.3000	81.4837
568.2000	81.62
568.1000	81.7498
568.0000	81.8899
567.9000	82.0216
567.8000	82.0957
567.7000	82.1671
567.6000	82.2182
567.5000	82.2207
567.4000	82.2519
567.3000	82.2381
567.2000	82.2251
567.1000	82.2034
567.0000	82.194
566.9000	82.0385
566.8000	81.9664
566.7000	81.8484
566.6000	81.7191
566.5000	81.611
566.4000	81.393
566.3000	81.1962
566.2000	80.9898
566.1000	80.7743
566.0000	80.5446
565.9000	80.2839
565.8000	80.0198
565.7000	79.7536
565.6000	79.4464
565.5000	79.1512
565.4000	78.8071
565.3000	78.5361
565.2000	78.1698
565.1000	77.8314
565.0000	77.4965
564.9000	77.1228
564.8000	76.8232
564.7000	76.4707
564.6000	76.1366
564.5000	75.7734
564.4000	75.473
564.3000	75.1708
564.2000	74.8044
564.1000	74.4822
564.0000	74.1825
563.9000	73.8781
563.8000	73.6151
563.7000	73.3763
563.6000	73.1298
563.5000	72.9027
563.4000	72.6691
563.3000	72.4632
563.2000	72.2657
563.1000	72.1
563.0000	71.8938
562.9000	71.7121
562.8000	71.5153
562.7000	71.386
562.6000	71.3201
562.5000	71.212
562.4000	71.1498
562.3000	71.1339
562.2000	71.0671
562.1000	71.0143
562.0000	71.0239
561.9000	70.9926
561.8000	71.0044
561.7000	71.0641
561.6000	71.105
561.5000	71.1851
561.4000	71.3181
561.3000	71.4577
561.2000	71.609
561.1000	71.7245
561.0000	71.8707
560.9000	72.0686
560.8000	72.2881
560.7000	72.4757
560.6000	72.7377
560.5000	72.9811
560.4000	73.2335
560.3000	73.5315
560.2000	73.8222
560.1000	74.1111
560.0000	74.4264
559.9000	74.6886
559.8000	75.0125
559.7000	75.3661
559.6000	75.6815
559.5000	76.0564
559.4000	76.4367
559.3000	76.788
559.2000	77.0297
559.1000	77.3944
559.0000	77.7127
558.9000	78.0224
558.8000	78.357
558.7000	78.6809
558.6000	78.9685
558.5000	79.261
558.4000	79.5331
558.3000	79.8291
558.2000	80.1084
558.1000	80.3282
558.0000	80.5762
557.9000	80.7707
557.8000	80.9164
557.7000	81.0354
557.6000	81.2539
557.5000	81.3773
557.4000	81.4913
557.3000	81.5808
557.2000	81.6216
557.1000	81.6192
557.0000	81.6623
556.9000	81.6144
556.8000	81.5686
556.7000	81.535
556.6000	81.4457
556.5000	81.2704
556.4000	81.1533
556.3000	80.9851
556.2000	80.8234
556.1000	80.6367
556.0000	80.4374
555.9000	80.164
555.8000	79.8654
555.7000	79.5935
555.6000	79.3243
555.5000	79.0077
555.4000	78.6991
555.3000	78.403
555.2000	78.071
555.1000	77.6799
555.0000	77.3277
554.9000	77.0069
554.8000	76.6398
554.7000	76.2765
554.6000	75.9357
554.5000	75.5838
554.4000	75.1631
554.3000	74.8304
554.2000	74.5161
554.1000	74.1607
554.0000	73.8042
553.9000	73.5078
553.8000	73.145
553.7000	72.8129
553.6000	72.5435
553.5000	72.3048
553.4000	72.0498
553.3000	71.84
553.2000	71.5875
553.1000	71.3405
553.0000	71.1183
552.9000	70.9516
552.8000	70.8265
552.7000	70.6757
552.6000	70.54
552.5000	70.4453
552.4000	70.3787
552.3000	70.3057
552.2000	70.3014
552.1000	70.254
552.0000	70.2116
551.9000	70.1969
551.8000	70.2371
551.7000	70.2511
551.6000	70.3468
551.5000	70.4754
551.4000	70.5774
551.3000	70.6851
551.2000	70.8112
551.1000	70.9629
551.0000	71.0999
550.9000	71.319
550.8000	71.5154
550.7000	71.7513
550.6000	71.9955
550.5000	72.271
550.4000	72.5399
550.3000	72.814
550.2000	73.0696
550.1000	73.3994
550.0000	73.681
549.9000	74.0095
549.8000	74.389
549.7000	74.7277
549.6000	75.0778
549.5000	75.4254
549.4000	75.794
549.3000	76.1504
549.2000	76.5324
549.1000	76.8839
549.0000	77.2399
548.9000	77.594
548.8000	77.9341
548.7000	78.3432
548.6000	78.6793
548.5000	78.9385
548.4000	79.2494
548.3000	79.5076
548.2000	79.6704
548.1000	79.9356
548.0000	80.1374
547.9000	80.3657
547.8000	80.5378
547.7000	80.6344
547.6000	80.7217
547.5000	80.8567
547.4000	80.9376
547.3000	80.9734
547.2000	81.0081
547.1000	80.9774
547.0000	80.9172
546.9000	80.901
546.8000	80.8054
546.7000	80.7215
546.6000	80.6236
546.5000	80.4546
546.4000	80.3292
546.3000	80.094
546.2000	79.9425
546.1000	79.7097
546.0000	79.4799
545.9000	79.1915
545.8000	78.8805
545.7000	78.5978
545.6000	78.2754
545.5000	77.8938
545.4000	77.5399
545.3000	77.1952
545.2000	76.8309
545.1000	76.4566
545.0000	76.0706
544.9000	75.6623
544.8000	75.2754
544.7000	74.9143
544.6000	74.5255
544.5000	74.1852
544.4000	73.8021
544.3000	73.4551
544.2000	73.0892
544.1000	72.7411
544.0000	72.4091
543.9000	72.0973
543.8000	71.843
543.7000	71.5167
543.6000	71.2516
543.5000	70.9853
543.4000	70.7475
543.3000	70.5444
543.2000	70.344
543.1000	70.1951
543.0000	70.0094
542.9000	69.8564
542.8000	69.7145
542.7000	69.5868
542.6000	69.4875
542.5000	69.4209
542.4000	69.3801
542.3000	69.3661
542.2000	69.3588
542.1000	69.3855
542.0000	69.4567
541.9000	69.5629
541.8000	69.7121
541.7000	69.8299
541.6000	69.9437
541.5000	70.0901
541.4000	70.2515
541.3000	70.4475
541.2000	70.7088
541.1000	70.9539
541.0000	71.2201
540.9000	71.4971
540.8000	71.8183
540.7000	72.1264
540.6000	72.4389
540.5000	72.8153
540.4000	73.1423
540.3000	73.4515
540.2000	73.7839
540.1000	74.1555
540.0000	74.5365
539.9000	74.8756
539.8000	75.2618
539.7000	75.6204
539.6000	75.9699
539.5000	76.3237
539.4000	76.7138
539.3000	77.0402
539.2000	77.3802
539.1000	77.7423
539.0000	78.0596
538.9000	78.3166
538.8000	78.5938
538.7000	78.8863
538.6000	79.1252
538.5000	79.3703
538.4000	79.5991
538.3000	79.794
538.2000	79.958
538.1000	80.1206
538.0000	80.2354
537.9000	80.3581
537.8000	80.4128
537.7000	80.4762
537.6000	80.4376
537.5000	80.367
537.4000	80.3346
537.3000	80.2661
537.2000	80.1996
537.1000	80.0366
537.0000	79.8665
536.9000	79.6678
536.8000	79.3678
536.7000	79.1496
536.6000	78.9137
536.5000	78.6125
536.4000	78.3139
536.3000	77.9754
536.2000	77.6112
536.1000	77.2281
536.0000	76.9097
535.9000	76.554
535.8000	76.1195
535.7000	75.7579
535.6000	75.3416
535.5000	74.9506
535.4000	74.5638
535.3000	74.171
535.2000	73.8432
535.1000	73.4356
535.0000	73.0505
534.9000	72.6882
534.8000	72.3619
534.7000	72.0199
534.6000	71.6905
534.5000	71.3557
534.4000	70.9999
534.3000	70.7129
534.2000	70.4575
534.1000	70.2113
534.0000	69.9417
533.9000	69.7211
533.8000	69.5561
533.7000	69.4086
533.6000	69.2534
533.5000	69.1297
533.4000	69.0371
533.3000	68.9906
533.2000	68.8989
533.1000	68.802
533.0000	68.7969
532.9000	68.8841
532.8000	68.9591
532.7000	69.0036
532.6000	69.0905
532.5000	69.1935
532.4000	69.3208
532.3000	69.4838
532.2000	69.6599
532.1000	69.8314
532.0000	70.0611
531.9000	70.3341
531.8000	70.6084
531.7000	70.8738
531.6000	71.1962
531.5000	71.5742
531.4000	71.9306
531.3000	72.2168
531.2000	72.5502
531.1000	72.9016
531.0000	73.294
530.9000	73.6493
530.8000	74.0707
530.7000	74.4873
530.6000	74.8682
530.5000	75.2386
530.4000	75.6431
530.3000	76.0322
530.2000	76.3646
530.1000	76.7139
530.0000	77.0226
529.9000	77.3573
529.8000	77.6787
529.7000	78.0225
529.6000	78.3297
529.5000	78.6279
529.4000	78.9053
529.3000	79.1675
529.2000	79.3528
529.1000	79.5289
529.0000	79.6678
528.9000	79.7879
528.8000	79.8957
528.7000	79.9117
528.6000	79.9316
528.5000	79.9175
528.4000	79.8979
528.3000	79.8424
528.2000	79.7589
528.1000	79.6515
528.0000	79.5548
527.9000	79.4319
527.8000	79.2314
527.7000	79.0323
527.6000	78.8371
527.5000	78.5495
527.4000	78.2843
527.3000	78.032
527.2000	77.7052
527.1000	77.3776
527.0000	77.0826
526.9000	76.7636
526.8000	76.4289
526.7000	76.0639
526.6000	75.6646
526.5000	75.2763
526.4000	74.8439
526.3000	74.4484
526.2000	74.0475
526.1000	73.6269
526.0000	73.22
525.9000	72.8495
525.8000	72.446
525.7000	72.0843
525.6000	71.7216
525.5000	71.3822
525.4000	71.0023
525.3000	70.6828
525.2000	70.4101
525.1000	70.0916
525.0000	69.8547
524.9000	69.6326
524.8000	69.424
524.7000	69.2102
524.6000	69.0531
524.5000	68.9282
524.4000	68.8024
524.3000	68.7299
524.2000	68.6971
524.1000	68.648
524.0000	68.6162
523.9000	68.6277
523.8000	68.7041
523.7000	68.8008
523.6000	68.847
523.5000	68.9922
523.4000	69.1533
523.3000	69.3367
523.2000	69.5704
523.1000	69.7813
523.0000	69.9883
522.9000	70.2176
522.8000	70.4991
522.7000	70.8197
522.6000	71.1434
522.5000	71.518
522.4000	71.9228
522.3000	72.3125
522.2000	72.7104
522.1000	73.0636
522.0000	73.4655
521.9000	73.9061
521.8000	74.2725
521.7000	74.6703
521.6000	75.0739
521.5000	75.5146
521.4000	75.9366
521.3000	76.3752
521.2000	76.8038
521.1000	77.155
521.0000	77.4948
520.9000	77.8257
520.8000	78.1047
520.7000	78.4068
520.6000	78.669
520.5000	78.9624
520.4000	79.2313
520.3000	79.4136
520.2000	79.6154
520.1000	79.7734
520.0000	79.8473
519.9000	79.893
519.8000	79.9329
519.7000	79.9737
519.6000	79.9119
519.5000	79.7782
519.4000	79.6826
519.3000	79.5677
519.2000	79.3346
519.1000	79.179
519.0000	79.0008
518.9000	78.7271
518.8000	78.4672
518.7000	78.1864
518.6000	77.8856
518.5000	77.5947
518.4000	77.2765
518.3000	76.9721
518.2000	76.6187
518.1000	76.2429
518.0000	75.8889
517.9000	75.5123
517.8000	75.0835
517.7000	74.7051
517.6000	74.363
517.5000	73.9596
517.4000	73.5201
517.3000	73.1739
517.2000	72.7723
517.1000	72.4342
517.0000	72.1169
516.9000	71.7899
516.8000	71.4722
516.7000	71.118
516.6000	70.8366
516.5000	70.5476
516.4000	70.3008
516.3000	70.0856
516.2000	69.9033
516.1000	69.6406
516.0000	69.4685
515.9000	69.3106
515.8000	69.213
515.7000	69.1416
515.6000	69.0684
515.5000	69.0014
515.4000	68.9545
515.3000	68.9719
515.2000	69.0137
515.1000	69.092
515.0000	69.2221
514.9000	69.3523
514.8000	69.4341
514.7000	69.5849
514.6000	69.8134
514.5000	70.0847
514.4000	70.3063
514.3000	70.5744
514.2000	70.852
514.1000	71.1546
514.0000	71.5354
513.9000	71.9387
513.8000	72.3293
513.7000	72.7181
513.6000	73.0978
513.5000	73.4683
513.4000	73.8232
513.3000	74.2728
513.2000	74.7744
513.1000	75.2036
513.0000	75.6234
512.9000	76.0381
512.8000	76.4791
512.7000	76.8841
512.6000	77.2897
512.5000	77.6329
512.4000	77.9528
512.3000	78.2572
512.2000	78.5463
512.1000	78.8065
512.0000	79.0782
511.9000	79.3677
511.8000	79.5802
511.7000	79.7774
511.6000	79.8843
511.5000	79.9674
511.4000	79.985
511.3000	80.003
511.2000	79.9877
511.1000	79.9355
511.0000	79.8431
510.9000	79.7334
510.8000	79.6214
510.7000	79.4438
510.6000	79.2776
510.5000	79.0894
510.4000	78.8288
510.3000	78.5448
510.2000	78.2544
510.1000	77.8695
510.0000	77.5195
509.9000	77.1902
509.8000	76.8637
509.7000	76.473
509.6000	76.1206
509.5000	75.7489
509.4000	75.3727
509.3000	74.9656
509.2000	74.5845
509.1000	74.1291
509.0000	73.6832
508.9000	73.2527
508.8000	72.8406
508.7000	72.4801
508.6000	72.1224
508.5000	71.7816
508.4000	71.449
508.3000	71.1879
508.2000	70.8588
508.1000	70.5999
508.0000	70.266
507.9000	70.0193
507.8000	69.7937
507.7000	69.6348
507.6000	69.4847
507.5000	69.417
507.4000	69.3408
507.3000	69.2983
507.2000	69.3203
507.1000	69.2789
507.0000	69.3021
506.9000	69.3864
506.8000	69.4943
506.7000	69.6005
506.6000	69.8019
506.5000	70.0149
506.4000	70.2858
506.3000	70.5463
506.2000	70.8624
506.1000	71.1553
506.0000	71.4687
505.9000	71.8436
505.8000	72.2085
505.7000	72.5912
505.6000	72.9505
505.5000	73.4145
505.4000	73.8146
505.3000	74.2202
505.2000	74.6783
505.1000	75.1422
505.0000	75.5797
504.9000	76.0407
504.8000	76.4618
504.7000	76.8657
504.6000	77.1885
504.5000	77.5921
504.4000	77.9795
504.3000	78.3306
504.2000	78.7246
504.1000	79.0299
504.0000	79.2965
503.9000	79.5075
503.8000	79.7713
503.7000	79.9354
503.6000	80.1125
503.5000	80.1438
503.4000	80.2091
503.3000	80.2024
503.2000	80.1902
503.1000	80.2049
503.0000	80.199
502.9000	80.1334
502.8000	79.9508
502.7000	79.7462
502.6000	79.4787
502.5000	79.2764
502.4000	79.0208
502.3000	78.7204
502.2000	78.4064
502.1000	78.1304
502.0000	77.7368
501.9000	77.4656
501.8000	77.0911
501.7000	76.6724
501.6000	76.2795
501.5000	75.8686
501.4000	75.451
501.3000	75.0263
501.2000	74.6067
501.1000	74.1961
501.0000	73.7934
500.9000	73.4036
500.8000	73.0479
500.7000	72.685
500.6000	72.3282
500.5000	71.9762
500.4000	71.6536
500.3000	71.2797
500.2000	71.042
500.1000	70.8227
500.0000	70.6109
499.9000	70.3586
499.8000	70.2053
499.7000	70.0864
499.6000	70.0676
499.5000	70.0345
499.4000	70.035
499.3000	70.0179
499.2000	70.0519
499.1000	70.1778
499.0000	70.2632
498.9000	70.3734
498.8000	70.5539
498.7000	70.7749
498.6000	70.954
498.5000	71.1966
498.4000	71.4958
498.3000	71.871
498.2000	72.2088
498.1000	72.524
498.0000	72.857
497.9000	73.2418
497.8000	73.6761
497.7000	74.0749
497.6000	74.5162
497.5000	74.9287
497.4000	75.4045
497.3000	75.8595
497.2000	76.2969
497.1000	76.7401
497.0000	77.2047
496.9000	77.6145
496.8000	77.9958
496.7000	78.3193
496.6000	78.669
496.5000	79.0487
496.4000	79.3434
496.3000	79.5851
496.2000	79.757
496.1000	80.0446
496.0000	80.1628
495.9000	80.2916
495.8000	80.392
495.7000	80.5004
495.6000	80.5395
495.5000	80.4919
495.4000	80.4205
495.3000	80.3666
495.2000	80.2777
495.1000	80.1785
495.0000	79.9495
494.9000	79.7185
494.8000	79.5009
494.7000	79.2185
494.6000	78.9463
494.5000	78.5762
494.4000	78.3041
494.3000	77.912
494.2000	77.5217
494.1000	77.1217
494.0000	76.7594
493.9000	76.3283
493.8000	75.8874
493.7000	75.4487
493.6000	75.0131
493.5000	74.5282
493.4000	74.1305
493.3000	73.7021
493.2000	73.3041
493.1000	72.9862
493.0000	72.6168
492.9000	72.2957
492.8000	71.949
492.7000	71.694
492.6000	71.4127
492.5000	71.1683
492.4000	70.9265
492.3000	70.8002
492.2000	70.6768
492.1000	70.5865
492.0000	70.5188
491.9000	70.5615
491.8000	70.5722
491.7000	70.632
491.6000	70.6798
491.5000	70.7641
491.4000	70.9311
491.3000	71.0813
491.2000	71.2877
491.1000	71.5005
491.0000	71.7826
490.9000	72.0716
490.8000	72.3784
490.7000	72.7034
490.6000	73.0818
490.5000	73.4538
490.4000	73.8672
490.3000	74.2612
490.2000	74.7337
490.1000	75.1577
490.0000	75.597
489.9000	76.0471
489.8000	76.4718
489.7000	76.8787
489.6000	77.3069
489.5000	77.7664
489.4000	78.1459
489.3000	78.5105
489.2000	78.8782
489.1000	79.2492
489.0000	79.5329
488.9000	79.8198
488.8000	80.052
488.7000	80.2629
488.6000	80.4349
488.5000	80.5613
488.4000	80.6754
488.3000	80.7217
488.2000	80.7386
488.1000	80.7685
488.0000	80.6878
487.9000	80.5539
487.8000	80.4619
487.7000	80.2895
487.6000	80.1118
487.5000	79.8659
487.4000	79.6222
487.3000	79.2729
487.2000	78.9499
487.1000	78.581
487.0000	78.1872
486.9000	77.7948
486.8000	77.4032
486.7000	76.9786
486.6000	76.577
486.5000	76.1162
486.4000	75.6649
486.3000	75.2843
486.2000	74.8303
486.1000	74.4328
486.0000	73.9817
485.9000	73.6107
485.8000	73.1915
485.7000	72.8784
485.6000	72.6006
485.5000	72.3006
485.4000	72.0591
485.3000	71.8667
485.2000	71.6321
485.1000	71.479
485.0000	71.331
484.9000	71.2297
484.8000	71.219
484.7000	71.149
484.6000	71.1746
484.5000	71.224
484.4000	71.33
484.3000	71.3922
484.2000	71.563
484.1000	71.7431
484.0000	71.8914
483.9000	72.1455
483.8000	72.3533
483.7000	72.6406
483.6000	72.9485
483.5000	73.2467
483.4000	73.5761
483.3000	73.9412
483.2000	74.27
483.1000	74.677
483.0000	75.0711
482.9000	75.4773
482.8000	75.9145
482.7000	76.3939
482.6000	76.8418
482.5000	77.2816
482.4000	77.6774
482.3000	78.06
482.2000	78.4591
482.1000	78.8433
482.0000	79.2303
481.9000	79.5939
481.8000	79.9005
481.7000	80.1951
481.6000	80.4779
481.5000	80.6246
481.4000	80.7964
481.3000	80.907
481.2000	80.995
481.1000	81.0195
481.0000	81.0035
480.9000	80.9146
480.8000	80.8991
480.7000	80.7359
480.6000	80.5142
480.5000	80.2276
480.4000	79.9206
480.3000	79.5961
480.2000	79.3206
480.1000	78.9421
480.0000	78.4904
479.9000	78.1518
479.8000	77.7432
479.7000	77.3257
479.6000	76.8361
479.5000	76.361
479.4000	75.9015
479.3000	75.4558
479.2000	74.946
479.1000	74.5168
479.0000	74.1767
478.9000	73.7653
478.8000	73.4178
478.7000	73.0898
478.6000	72.7121
478.5000	72.4097
478.4000	72.1568
478.3000	71.8986
478.2000	71.6453
478.1000	71.3973
478.0000	71.2636
477.9000	71.1168
477.8000	71.0276
477.7000	71.029
477.6000	70.9986
477.5000	71.0932
477.4000	71.1285
477.3000	71.2998
477.2000	71.4395
477.1000	71.5767
477.0000	71.8287
476.9000	72.0664
476.8000	72.3462
476.7000	72.6068
476.6000	72.9196
476.5000	73.3017
476.4000	73.6523
476.3000	74.0719
476.2000	74.483
476.1000	74.8881
476.0000	75.3731
475.9000	75.7827
475.8000	76.2437
475.7000	76.6244
475.6000	77.041
475.5000	77.4856
475.4000	77.8469
475.3000	78.223
475.2000	78.627
475.1000	78.9815
475.0000	79.3682
474.9000	79.6763
474.8000	79.9551
474.7000	80.1862
474.6000	80.3496
474.5000	80.4547
474.4000	80.5322
474.3000	80.5799
474.2000	80.5597
474.1000	80.5238
474.0000	80.4692
473.9000	80.3982
473.8000	80.1889
473.7000	79.9854
473.6000	79.7399
473.5000	79.4669
473.4000	79.1223
473.3000	78.806
473.2000	78.4122
473.1000	77.9886
473.0000	77.5932
472.9000	77.2185
472.8000	76.7438
472.7000	76.3044
472.6000	75.8527
472.5000	75.4084
472.4000	74.9686
472.3000	74.4598
472.2000	74.0641
472.1000	73.7021
472.0000	73.3066
471.9000	72.9025
471.8000	72.556
471.7000	72.238
471.6000	71.9204
471.5000	71.6871
471.4000	71.4752
471.3000	71.2615
471.2000	71.1331
471.1000	70.9765
471.0000	70.9142
470.9000	70.9201
470.8000	70.8809
470.7000	70.9437
470.6000	71.0931
470.5000	71.2434
470.4000	71.3483
470.3000	71.6487
470.2000	71.8793
470.1000	72.1399
470.0000	72.5077
469.9000	72.8068
469.8000	73.1807
469.7000	73.577
469.6000	74.0014
469.5000	74.4652
469.4000	74.9046
469.3000	75.2841
469.2000	75.7663
469.1000	76.1973
469.0000	76.6251
468.9000	76.9904
468.8000	77.4698
468.7000	77.8604
468.6000	78.2519
468.5000	78.6084
468.4000	78.908
468.3000	79.2438
468.2000	79.4938
468.1000	79.7367
468.0000	79.9643
467.9000	80.0863
467.8000	80.1719
467.7000	80.2351
467.6000	80.2443
467.5000	80.2046
467.4000	80.0523
467.3000	79.8944
467.2000	79.6933
467.1000	79.3906
467.0000	79.103
466.9000	78.7686
466.8000	78.4542
466.7000	78.0928
466.6000	77.7223
466.5000	77.2282
466.4000	76.7163
466.3000	76.2466
466.2000	75.764
466.1000	75.3351
466.0000	74.8268
465.9000	74.3544
465.8000	73.8895
465.7000	73.4419
465.6000	73.0345
465.5000	72.6335
465.4000	72.2602
465.3000	71.9279
465.2000	71.5518
465.1000	71.2676
465.0000	70.9569
464.9000	70.7403
464.8000	70.5395
464.7000	70.3808
464.6000	70.2707
464.5000	70.1791
464.4000	70.1675
464.3000	70.1996
464.2000	70.2551
464.1000	70.3689
464.0000	70.4942
463.9000	70.689
463.8000	70.9187
463.7000	71.1697
463.6000	71.5171
463.5000	71.8343
463.4000	72.2157
463.3000	72.6081
463.2000	73.035
463.1000	73.4651
463.0000	73.9047
462.9000	74.3331
462.8000	74.8355
462.7000	75.2612
462.6000	75.7563
462.5000	76.2014
462.4000	76.6757
462.3000	77.0985
462.2000	77.496
462.1000	77.8732
462.0000	78.1784
461.9000	78.4307
461.8000	78.6898
461.7000	78.9034
461.6000	79.0604
461.5000	79.2102
461.4000	79.2567
461.3000	79.2807
461.2000	79.2192
461.1000	79.1541
461.0000	79.0201
460.9000	78.8207
460.8000	78.5785
460.7000	78.2583
460.6000	77.9357
460.5000	77.5432
460.4000	77.1137
460.3000	76.7073
460.2000	76.2139
460.1000	75.7287
460.0000	75.2558
459.9000	74.7281
459.8000	74.224
459.7000	73.7565
459.6000	73.2499
459.5000	72.7622
459.4000	72.3334
459.3000	71.9529
459.2000	71.5196
459.1000	71.1612
459.0000	70.7656
458.9000	70.4565
458.8000	70.1925
458.7000	69.9502
458.6000	69.6863
458.5000	69.5398
458.4000	69.4175
458.3000	69.3894
458.2000	69.4017
458.1000	69.3958
458.0000	69.4615
457.9000	69.571
457.8000	69.7057
457.7000	69.8231
457.6000	70.0435
457.5000	70.292
457.4000	70.6697
457.3000	71.0092
457.2000	71.4241
457.1000	71.8149
457.0000	72.3217
456.9000	72.7705
456.8000	73.2416
456.7000	73.6518
456.6000	74.1374
456.5000	74.6601
456.4000	75.1436
456.3000	75.6569
456.2000	76.0322
456.1000	76.5283
456.0000	76.9158
455.9000	77.2565
455.8000	77.511
455.7000	77.791
455.6000	77.9909
455.5000	78.1446
455.4000	78.2272
455.3000	78.2559
455.2000	78.2771
455.1000	78.2926
455.0000	78.1583
454.9000	77.9641
454.8000	77.7289
454.7000	77.4251
454.6000	77.1446
454.5000	76.7042
454.4000	76.3024
454.3000	75.9292
454.2000	75.4743
454.1000	75.0311
454.0000	74.5091
453.9000	74.0421
453.8000	73.5374
453.7000	73.0275
453.6000	72.4894
453.5000	71.9831
453.4000	71.5137
453.3000	71.0654
453.2000	70.6008
453.1000	70.1845
453.0000	69.8023
452.9000	69.4554
452.8000	69.1747
452.7000	68.9173
452.6000	68.7039
452.5000	68.4676
452.4000	68.3569
452.3000	68.263
452.2000	68.2928
452.1000	68.3262
452.0000	68.401
451.9000	68.5176
451.8000	68.7255
451.7000	68.9566
451.6000	69.2448
451.5000	69.5525
451.4000	69.9346
451.3000	70.377
451.2000	70.8459
451.1000	71.2935
451.0000	71.7842
450.9000	72.3258
450.8000	72.8369
450.7000	73.3376
450.6000	73.8128
450.5000	74.3634
450.4000	74.8812
450.3000	75.3772
450.2000	75.7921
450.1000	76.1575
450.0000	76.5471
449.9000	76.8875
449.8000	77.1163
449.7000	77.3654
449.6000	77.524
449.5000	77.6336
449.4000	77.6867
449.3000	77.6473
449.2000	77.5473
449.1000	77.3898
449.0000	77.1975
448.9000	76.9261
448.8000	76.5826
448.7000	76.1853
448.6000	75.7561
448.5000	75.3025
448.4000	74.8107
448.3000	74.3718
448.2000	73.8873
448.1000	73.354
448.0000	72.7109
447.9000	72.1606
447.8000	71.6275
447.7000	71.1152
447.6000	70.6415
447.5000	70.1887
447.4000	69.7172
447.3000	69.3044
447.2000	68.911
447.1000	68.5905
447.0000	68.3074
446.9000	68.0212
446.8000	67.7682
446.7000	67.5889
446.6000	67.5387
446.5000	67.44
446.4000	67.5154
446.3000	67.5627
446.2000	67.6794
446.1000	67.8368
446.0000	68.0327
445.9000	68.311
445.8000	68.6644
445.7000	69.0112
445.6000	69.4185
445.5000	69.8075
445.4000	70.2569
445.3000	70.8031
445.2000	71.3992
445.1000	71.9037
445.0000	72.3346
444.9000	72.8324
444.8000	73.2939
444.7000	73.7752
444.6000	74.2617
444.5000	74.6784
444.4000	75.0916
444.3000	75.4723
444.2000	75.7421
444.1000	76.0194
444.0000	76.2234
443.9000	76.4531
443.8000	76.5202
443.7000	76.4967
443.6000	76.402
443.5000	76.2696
443.4000	76.1491
443.3000	75.9842
443.2000	75.7224
443.1000	75.3957
443.0000	74.93
442.9000	74.5671
442.8000	74.124
442.7000	73.6398
442.6000	73.1345
442.5000	72.5634
442.4000	72.026
442.3000	71.4119
442.2000	70.9088
442.1000	70.3761
442.0000	69.8535
441.9000	69.3472
441.8000	68.8593
441.7000	68.3394
441.6000	67.9571
441.5000	67.6041
441.4000	67.3051
441.3000	67.0421
441.2000	66.8008
441.1000	66.6009
441.0000	66.4652
440.9000	66.424
440.8000	66.4298
440.7000	66.5475
440.6000	66.6964
440.5000	66.8903
440.4000	67.1508
440.3000	67.4375
440.2000	67.7906
440.1000	68.2899
440.0000	68.765
439.9000	69.253
439.8000	69.809
439.7000	70.3226
439.6000	70.8813
439.5000	71.4145
439.4000	72.0613
439.3000	72.6621
439.2000	73.2692
439.1000	73.7325
439.0000	74.2032
438.9000	74.6712
438.8000	75.1114
438.7000	75.4755
438.6000	75.7608
438.5000	75.9237
438.4000	76.0194
438.3000	76.0218
438.2000	75.9989
438.1000	75.9423
438.0000	75.8367
437.9000	75.7137
437.8000	75.4732
437.7000	75.1593
437.6000	74.7952
437.5000	74.4112
437.4000	73.9447
437.3000	73.4676
437.2000	72.9409
437.1000	72.4581
437.0000	71.9123
436.9000	71.368
436.8000	70.8123
436.7000	70.3132
436.6000	69.7765
436.5000	69.2269
436.4000	68.6941
436.3000	68.257
436.2000	67.7956
436.1000	67.4232
436.0000	67.0804
435.9000	66.7958
435.8000	66.5798
435.7000	66.4229
435.6000	66.3123
435.5000	66.2589
435.4000	66.2516
435.3000	66.3345
435.2000	66.4892
435.1000	66.7156
435.0000	67.0077
434.9000	67.3233
434.8000	67.7596
434.7000	68.1642
434.6000	68.6484
434.5000	69.1309
434.4000	69.6942
434.3000	70.2966
434.2000	70.8762
434.1000	71.3757
434.0000	71.8765
433.9000	72.3988
433.8000	72.9718
433.7000	73.4958
433.6000	73.9204
433.5000	74.3428
433.4000	74.7177
433.3000	75.0124
433.2000	75.2122
433.1000	75.3303
433.0000	75.4037
432.9000	75.4089
432.8000	75.3064
432.7000	75.1312
432.6000	74.9009
432.5000	74.6753
432.4000	74.384
432.3000	74.0381
432.2000	73.592
432.1000	73.1532
432.0000	72.6438
431.9000	72.082
431.8000	71.4665
431.7000	70.9436
431.6000	70.3757
431.5000	69.8283
431.4000	69.2805
431.3000	68.7215
431.2000	68.1706
431.1000	67.7325
431.0000	67.2835
430.9000	66.9432
430.8000	66.6478
430.7000	66.3437
430.6000	66.085
430.5000	65.9147
430.4000	65.8373
430.3000	65.8403
430.2000	65.9332
430.1000	66.0205
430.0000	66.1263
429.9000	66.3763
429.8000	66.7044
429.7000	67.1136
429.6000	67.5691
429.5000	67.9514
429.4000	68.4513
429.3000	68.9987
429.2000	69.5256
429.1000	70.0796
429.0000	70.6617
428.9000	71.2594
428.8000	71.8618
428.7000	72.3987
428.6000	72.9336
428.5000	73.4136
428.4000	73.8773
428.3000	74.2578
428.2000	74.5281
428.1000	74.8105
428.0000	75.0496
427.9000	75.2151
427.8000	75.2883
427.7000	75.1897
427.6000	75.0762
427.5000	74.9073
427.4000	74.709
427.3000	74.3783
427.2000	73.9575
427.1000	73.4986
427.0000	73.0009
426.9000	72.5336
426.8000	71.9999
426.7000	71.4133
426.6000	70.8506
426.5000	70.2209
426.4000	69.5843
426.3000	69.0018
426.2000	68.5206
426.1000	68.0969
426.0000	67.6995
425.9000	67.2574
425.8000	66.8679
425.7000	66.5492
425.6000	66.3773
425.5000	66.2371
425.4000	66.1486
425.3000	66.1034
425.2000	66.2216
425.1000	66.374
425.0000	66.5526
424.9000	66.8101
424.8000	67.1215
424.7000	67.5103
424.6000	67.8971
424.5000	68.3089
424.4000	68.7664
424.3000	69.3304
424.2000	69.9648
424.1000	70.5071
424.0000	71.0404
423.9000	71.6713
423.8000	72.1701
423.7000	72.736
423.6000	73.1973
423.5000	73.6288
423.4000	74.0535
423.3000	74.3855
423.2000	74.7119
423.1000	74.9359
423.0000	75.0538
422.9000	75.1362
422.8000	75.1469
422.7000	74.9995
422.6000	74.7675
422.5000	74.5501
422.4000	74.1659
422.3000	73.7197
422.2000	73.3364
422.1000	72.8506
422.0000	72.3009
421.9000	71.7395
421.8000	71.1967
421.7000	70.6227
421.6000	70.0434
421.5000	69.4908
421.4000	68.939
421.3000	68.3954
421.2000	67.9405
421.1000	67.5546
421.0000	67.2095
420.9000	66.9015
420.8000	66.7561
420.7000	66.6292
420.6000	66.5549
420.5000	66.5249
420.4000	66.6313
420.3000	66.7758
420.2000	66.9191
420.1000	67.1998
420.0000	67.4292
419.9000	67.9347
419.8000	68.4676
419.7000	69.0023
419.6000	69.5494
419.5000	70.0365
419.4000	70.5531
419.3000	71.1329
419.2000	71.6811
419.1000	72.2341
419.0000	72.8693
418.9000	73.3849
418.8000	73.8062
418.7000	74.2317
418.6000	74.6367
418.5000	74.878
418.4000	75.0458
418.3000	75.0653
418.2000	75.0872
418.1000	75.0712
418.0000	74.9468
417.9000	74.8762
417.8000	74.6457
417.7000	74.2832
417.6000	73.9042
417.5000	73.5398
417.4000	73.0627
417.3000	72.5257
417.2000	72.0196
417.1000	71.4458
417.0000	70.7964
416.9000	70.2799
416.8000	69.7883
416.7000	69.2216
416.6000	68.7374
416.5000	68.2815
416.4000	67.899
416.3000	67.6243
416.2000	67.4449
416.1000	67.3001
416.0000	67.213
415.9000	67.1713
415.8000	67.2424
415.7000	67.3725
415.6000	67.5386
415.5000	67.7965
415.4000	68.2333
415.3000	68.704
415.2000	69.1575
415.1000	69.739
415.0000	70.2988
414.9000	70.8288
414.8000	71.3432
414.7000	71.8605
414.6000	72.3386
414.5000	72.9053
414.4000	73.491
414.3000	73.9821
414.2000	74.3592
414.1000	74.7087
414.0000	75.0726
413.9000	75.3018
413.8000	75.3534
413.7000	75.3437
413.6000	75.2896
413.5000	75.091
413.4000	74.875
413.3000	74.6261
413.2000	74.2902
413.1000	73.8325
413.0000	73.3391
412.9000	72.8103
412.8000	72.2577
412.7000	71.6775
412.6000	71.176
412.5000	70.5498
412.4000	69.9314
412.3000	69.3988
412.2000	68.9165
412.1000	68.4987
412.0000	68.1705
411.9000	67.8587
411.8000	67.5904
411.7000	67.4329
411.6000	67.4307
411.5000	67.4606
411.4000	67.6622
411.3000	67.7852
411.2000	67.9332
411.1000	68.2992
411.0000	68.6129
410.9000	69.1513
410.8000	69.6972
410.7000	70.2116
410.6000	70.7654
410.5000	71.2463
410.4000	71.8019
410.3000	72.4552
410.2000	72.9854
410.1000	73.4003
410.0000	73.8048
409.9000	74.1846
409.8000	74.4587
409.7000	74.7645
409.6000	75.0901
409.5000	75.1917
409.4000	75.2905
409.3000	75.2024
409.2000	75.0767
409.1000	74.8395
409.0000	74.6044
408.9000	74.2663
408.8000	73.8095
408.7000	73.3457
408.6000	72.8871
408.5000	72.3481
408.4000	71.7932
408.3000	71.3158
408.2000	70.7908
408.1000	70.2682
408.0000	69.6931
407.9000	69.205
407.8000	68.7155
407.7000	68.4214
407.6000	68.1373
407.5000	68.0759
407.4000	67.9219
407.3000	67.9704
407.2000	68.0899
407.1000	68.1046
407.0000	68.2929
406.9000	68.6772
406.8000	69.0568
406.7000	69.3596
406.6000	69.811
406.5000	70.3126
406.4000	70.9126
406.3000	71.4728
406.2000	72.0645
406.1000	72.5609
406.0000	73.0507
405.9000	73.4367
405.8000	73.8642
405.7000	74.1335
405.6000	74.3494
405.5000	74.622
405.4000	74.7148
405.3000	74.6352
405.2000	74.5541
405.1000	74.5259
405.0000	74.308
404.9000	73.9439
404.8000	73.4892
404.7000	73.0514
404.6000	72.5593
404.5000	72.0865
404.4000	71.56
404.3000	70.9458
404.2000	70.4363
404.1000	69.8981
404.0000	69.3886
403.9000	68.9752
403.8000	68.5971
403.7000	68.3394
403.6000	68.0646
403.5000	67.875
403.4000	67.6665
403.3000	67.7114
403.2000	67.7945
403.1000	67.9672
403.0000	68.2074
402.9000	68.4337
402.8000	68.7971
402.7000	69.3803
402.6000	69.815
402.5000	70.4057
402.4000	71.0168
402.3000	71.517
402.2000	72.0941
402.1000	72.6523
402.0000	73.1182
401.9000	73.4192
401.8000	73.8908
401.7000	74.0972
401.6000	74.3629
401.5000	74.3303
401.4000	74.3341
401.3000	74.229
401.2000	73.9369
401.1000	73.5805
401.0000	73.2057
400.9000	72.7663
400.8000	72.2203
400.7000	71.6715
400.6000	71.0323
400.5000	70.4369
400.4000	69.8694
400.3000	69.3695
400.2000	68.7715
400.1000	68.333
400.0000	67.8125
399.9000	67.5445
399.8000	67.3312
399.7000	67.1785
399.6000	67.1592
399.5000	67.0811
399.4000	67.2072
399.3000	67.335
399.2000	67.585
399.1000	67.9273
399.0000	68.3093
398.9000	68.7315
398.8000	69.2068
398.7000	69.7581
398.6000	70.3476
398.5000	70.913
398.4000	71.4402
398.3000	71.8583
398.2000	72.2441
398.1000	72.6033
398.0000	72.9476
397.9000	73.1751
397.8000	73.2438
397.7000	73.2226
397.6000	73.1721
397.5000	72.9369
397.4000	72.7188
397.3000	72.4526
397.2000	72.0699
397.1000	71.5373
397.0000	70.9772
396.9000	70.3518
396.8000	69.783
396.7000	69.2652
396.6000	68.6799
396.5000	68.2786
396.4000	67.7704
396.3000	67.3781
396.2000	66.9962
396.1000	66.7212
396.0000	66.5029
395.9000	66.496
395.8000	66.5209
395.7000	66.487
395.6000	66.5769
395.5000	66.887
395.4000	67.2355
395.3000	67.6998
395.2000	68.0843
395.1000	68.5707
395.0000	69.0737
394.9000	69.4812
394.8000	69.9197
394.7000	70.3646
394.6000	70.8935
394.5000	71.2583
394.4000	71.5789
394.3000	71.7715
394.2000	71.8193
394.1000	71.8378
394.0000	71.823
393.9000	71.6323
393.8000	71.3569
393.7000	70.9184
393.6000	70.5171
393.5000	69.9901
393.4000	69.4461
393.3000	68.8954
393.2000	68.3467
393.1000	67.7434
393.0000	67.175
392.9000	66.6327
392.8000	66.1933
392.7000	65.7793
392.6000	65.5157
392.5000	65.2415
392.4000	65.1537
392.3000	65.0946
392.2000	65.1889
392.1000	65.3875
392.0000	65.6594
391.9000	65.9797
391.8000	66.3077
391.7000	66.6922
391.6000	67.1773
391.5000	67.7641
391.4000	68.2445
391.3000	68.7743
391.2000	69.13
391.1000	69.5278
391.0000	69.8111
390.9000	70.1185
390.8000	70.2476
390.7000	70.2831
390.6000	70.0862
390.5000	69.881
390.4000	69.5936
390.3000	69.2042
390.2000	68.7848
390.1000	68.2446
390.0000	67.6843
389.9000	67.0285
389.8000	66.423
389.7000	65.8878
389.6000	65.3428
389.5000	64.8568
389.4000	64.4988
389.3000	64.1937
389.2000	63.9544
389.1000	63.7962
389.0000	63.8293
388.9000	63.8779
388.8000	64.0525
388.7000	64.3534
388.6000	64.703
388.5000	65.0966
388.4000	65.4739
388.3000	65.907
388.2000	66.3587
388.1000	66.8132
388.0000	67.3221
387.9000	67.7113
387.8000	67.991
387.7000	68.1815
387.6000	68.2703
387.5000	68.3095
387.4000	68.2748
387.3000	68.0589
387.2000	67.7286
387.1000	67.388
387.0000	66.8771
386.9000	66.3592
386.8000	65.8344
386.7000	65.2987
386.6000	64.7398
386.5000	64.1334
386.4000	63.6053
386.3000	63.0949
386.2000	62.676
386.1000	62.4433
386.0000	62.2527
385.9000	62.1463
385.8000	62.1206
385.7000	62.2121
385.6000	62.4272
385.5000	62.6516
385.4000	62.9964
385.3000	63.4217
385.2000	63.8758
385.1000	64.3574
385.0000	64.8303
384.9000	65.3082
384.8000	65.6831
384.7000	66.0838
384.6000	66.3703
384.5000	66.4973
384.4000	66.5589
384.3000	66.4974
384.2000	66.2642
384.1000	66.0119
384.0000	65.5997
383.9000	65.1015
383.8000	64.6016
383.7000	64.0433
383.6000	63.4792
383.5000	62.9031
383.4000	62.2878
383.3000	61.8195
383.2000	61.4222
383.1000	61.1165
383.0000	60.9486
382.9000	60.8114
382.8000	60.7555
382.7000	60.8542
382.6000	61.0699
382.5000	61.4065
382.4000	61.802
382.3000	62.2864
382.2000	62.7494
382.1000	63.1862
382.0000	63.523
381.9000	63.8644
381.8000	64.3264
381.7000	64.599
381.6000	64.697
381.5000	64.648
381.4000	64.4777
381.3000	64.2488
381.2000	63.9336
381.1000	63.4588
381.0000	62.9671
380.9000	62.3737
380.8000	61.7679
380.7000	61.1276
380.6000	60.5549
380.5000	60.1334
380.4000	59.8383
380.3000	59.606
380.2000	59.3696
380.1000	59.2251
380.0000	59.2789
379.9000	59.4552
379.8000	59.6469
379.7000	59.9773
379.6000	60.3471
379.5000	60.7952
379.4000	61.2284
379.3000	61.7099
379.2000	62.0979
379.1000	62.3855
379.0000	62.6119
378.9000	62.6795
378.8000	62.6222
378.7000	62.5279
378.6000	62.32
378.5000	62.0344
378.4000	61.6573
378.3000	61.1054
378.2000	60.5724
378.1000	59.9899
378.0000	59.4669
377.9000	58.9834
377.8000	58.4961
377.7000	58.0914
377.6000	57.862
377.5000	57.7865
377.4000	57.8029
377.3000	57.9237
377.2000	58.1159
377.1000	58.3315
377.0000	58.5934
376.9000	58.8819
376.8000	59.1862
376.7000	59.5379
376.6000	59.9096
376.5000	60.2558
376.4000	60.4505
376.3000	60.491
376.2000	60.4989
376.1000	60.3601
376.0000	60.1035
375.9000	59.6733
375.8000	59.2364
375.7000	58.7391
375.6000	58.2752
375.5000	57.7092
375.4000	57.2863
375.3000	56.978
375.2000	56.6339
375.1000	56.4875
375.0000	56.322
374.9000	56.1629
374.8000	56.2488
374.7000	56.4326
374.6000	56.5777
374.5000	56.797
374.4000	57.1036
374.3000	57.4926
374.2000	57.6723
374.1000	57.7339
374.0000	57.744
373.9000	57.6715
373.8000	57.4838
373.7000	57.1026
373.6000	56.7673
373.5000	56.2649
373.4000	55.8296
373.3000	55.4041
373.2000	54.957
373.1000	54.4622
373.0000	54.1402
372.9000	53.81
372.8000	53.4729
372.7000	53.2304
372.6000	53.0809
372.5000	53.0311
372.4000	52.948
372.3000	52.997
372.2000	52.9835
372.1000	52.9272
372.0000	52.7984
371.9000	52.6429
371.8000	52.3658
371.7000	52.0033
371.6000	51.5512
371.5000	51.1846
371.4000	50.5909
371.3000	50.1064
371.2000	49.5609
371.1000	49.0113
371.0000	48.5555
370.9000	48.1227
370.8000	47.7962
370.7000	47.4106
370.6000	46.9966
370.5000	46.623
370.4000	46.26
370.3000	45.805
370.2000	45.3449
370.1000	44.9025
370.0000	44.6507
369.9000	44.1006
369.8000	43.4562
369.7000	42.7833
369.6000	42.0047
369.5000	41.205
369.4000	40.4387
369.3000	39.6847
369.2000	38.9208
369.1000	38.1091
369.0000	37.3363
368.9000	36.3704
368.8000	35.5436
368.7000	34.6382
368.6000	33.7051
368.5000	32.8616
368.4000	31.9436
368.3000	31.0073
368.2000	30.1577
368.1000	29.2494
368.0000	28.3505
367.9000	27.3509
367.8000	26.3307
367.7000	25.2584
367.6000	24.1722
367.5000	23.0282
367.4000	21.9028
367.3000	20.8897
367.2000	19.7859
367.1000	18.7157
367.0000	17.6608
366.9000	16.6277
366.8000	15.6315
366.7000	14.6431
366.6000	13.6206
366.5000	12.6335
366.4000	11.6609
366.3000	10.7493
366.2000	9.84652
366.1000	9.03287
366.0000	8.19064
365.9000	7.43864
365.8000	6.71759
365.7000	6.02532
365.6000	5.40039
365.5000	4.82352
365.4000	4.27269
365.3000	3.74485
365.2000	3.26622
365.1000	2.84534
365.0000	2.47838
364.9000	2.14376
364.8000	1.84675
364.7000	1.59609
364.6000	1.3913
364.5000	1.19401
364.4000	1.035
364.3000	0.903411
364.2000	0.800407
364.1000	0.690574
364.0000	0.609357
363.9000	0.541778
363.8000	0.492047
363.7000	0.466649
363.6000	0.444112
363.5000	0.410065
363.4000	0.395382
363.3000	0.375763
363.2000	0.361295
363.1000	0.339894
363.0000	0.336572
362.9000	0.330755
362.8000	0.321891
362.7000	0.319269
362.6000	0.318646
362.5000	0.315409
362.4000	0.311314
362.3000	0.309174
362.2000	0.306206
362.1000	0.302512
362.0000	0.300015
361.9000	0.30765
361.8000	0.300821
361.7000	0.305685
361.6000	0.313898
361.5000	0.322618
361.4000	0.319213
361.3000	0.322635
361.2000	0.324411
361.1000	0.316937
361.0000	0.310054
360.9000	0.310504
360.8000	0.314042
360.7000	0.311677
360.6000	0.31307
360.5000	0.306573
360.4000	0.297063
360.3000	0.289299
360.2000	0.289988
360.1000	0.287231
360.0000	0.282257
359.9000	0.283915
359.8000	0.27943
359.7000	0.270576
359.6000	0.274588
359.5000	0.283611
359.4000	0.287418
359.3000	0.28972
359.2000	0.289994
359.1000	0.301426
359.0000	0.29811
358.9000	0.30033
358.8000	0.305683
358.7000	0.310088
358.6000	0.31129
358.5000	0.315778
358.4000	0.313353
358.3000	0.306145
358.2000	0.315866
358.1000	0.325376
358.0000	0.316146
357.9000	0.31807
357.8000	0.322865
357.7000	0.318244
357.6000	0.30867
357.5000	0.305762
357.4000	0.30419
357.3000	0.297
357.2000	0.29715
357.1000	0.299411
357.0000	0.299294
356.9000	0.290913
356.8000	0.293357
356.7000	0.300193
356.6000	0.293349
356.5000	0.289918
356.4000	0.295232
356.3000	0.296333
356.2000	0.288998
356.1000	0.291917
356.0000	0.294666
355.9000	0.294701
355.8000	0.295847
355.7000	0.305056
355.6000	0.302217
355.5000	0.299224
355.4000	0.30098
355.3000	0.310849
355.2000	0.309809
355.1000	0.310002
355.0000	0.310187
354.9000	0.305278
354.8000	0.30458
354.7000	0.305634
354.6000	0.30529
354.5000	0.307363
354.4000	0.303677
354.3000	0.292346
354.2000	0.299966
354.1000	0.298571
354.0000	0.300739
353.9000	0.301737
353.8000	0.295878
353.7000	0.295174
353.6000	0.307043
353.5000	0.306954
353.4000	0.310098
353.3000	0.316207
353.2000	0.313499
353.1000	0.306016
353.0000	0.30636
352.9000	0.305766
352.8000	0.306766
352.7000	0.309518
352.6000	0.310418
352.5000	0.313373
352.4000	0.309626
352.3000	0.313677
352.2000	0.318629
352.1000	0.31682
352.0000	0.304337
351.9000	0.303314
351.8000	0.297694
351.7000	0.290046
351.6000	0.303593
351.5000	0.307042
351.4000	0.305302
351.3000	0.303319
351.2000	0.308275
351.1000	0.310759
351.0000	0.30599
350.9000	0.30298
350.8000	0.31318
350.7000	0.319531
350.6000	0.319147
350.5000	0.326015
350.4000	0.32836
350.3000	0.326714
350.2000	0.331808
350.1000	0.336608
350.0000	0.326009
349.9000	0.324278
349.8000	0.330423
349.7000	0.330599
349.6000	0.332512
349.5000	0.337935
349.4000	0.338846
349.3000	0.345164
349.2000	0.340666
349.1000	0.330034
349.0000	0.32979
348.9000	0.331473
348.8000	0.333602
348.7000	0.340939
348.6000	0.333403
348.5000	0.344294
348.4000	0.34837
348.3000	0.351452
348.2000	0.353809
348.1000	0.360592
348.0000	0.355212
347.9000	0.351442
347.8000	0.35528
347.7000	0.350262
347.6000	0.347959
347.5000	0.358564
347.4000	0.365442
347.3000	0.35799
347.2000	0.360553
347.1000	0.356591
347.0000	0.35569
346.9000	0.350005
346.8000	0.355404
346.7000	0.34244
346.6000	0.340309
346.5000	0.331719
346.4000	0.340682
346.3000	0.347082
346.2000	0.344905
346.1000	0.348636
346.0000	0.355877
345.9000	0.343028
345.8000	0.338882
345.7000	0.344438
345.6000	0.350556
345.5000	0.352324
345.4000	0.35894
345.3000	0.362096
345.2000	0.358946
345.1000	0.372387
345.0000	0.376103
344.9000	0.378395
344.8000	0.370573
344.7000	0.365905
344.6000	0.366005
344.5000	0.371048
344.4000	0.367823
344.3000	0.378123
344.2000	0.373872
344.1000	0.375745
344.0000	0.382054
343.9000	0.376522
343.8000	0.372957
343.7000	0.378217
343.6000	0.383588
343.5000	0.379826
343.4000	0.367457
343.3000	0.373794
343.2000	0.38673
343.1000	0.382151
343.0000	0.388116
342.9000	0.390234
342.8000	0.394131
342.7000	0.401992
342.6000	0.409542
342.5000	0.401725
342.4000	0.388281
342.3000	0.393607
342.2000	0.402241
342.1000	0.406135
342.0000	0.396408
341.9000	0.399284
341.8000	0.420315
341.7000	0.42215
341.6000	0.404591
341.5000	0.418813
341.4000	0.407782
341.3000	0.405767
341.2000	0.402597
341.1000	0.39918
341.0000	0.395947
340.9000	0.404353
340.8000	0.406406
340.7000	0.403118
340.6000	0.400275
340.5000	0.393079
340.4000	0.400372
340.3000	0.4032
340.2000	0.40253
340.1000	0.408001
340.0000	0.345217
339.9000	0.350109
339.8000	0.37774
339.7000	0.368537
339.6000	0.347414
339.5000	0.365394
339.4000	0.361296
339.3000	0.332426
339.2000	0.319367
339.1000	0.328058
339.0000	0.314771
338.9000	0.321265
338.8000	0.3224
338.7000	0.359661
338.6000	0.363985
338.5000	0.354807
338.4000	0.34406
338.3000	0.329109
338.2000	0.304302
338.1000	0.32206
338.0000	0.303231
337.9000	0.283364
337.8000	0.289114
337.7000	0.303163
337.6000	0.309768
337.5000	0.309888
337.4000	0.313969
337.3000	0.317435
337.2000	0.297052
337.1000	0.276793
337.0000	0.273368
336.9000	0.270417
336.8000	0.283281
336.7000	0.279156
336.6000	0.300277
336.5000	0.282684
336.4000	0.314941
336.3000	0.300242
336.2000	0.304903
336.1000	0.304722
336.0000	0.303746
335.9000	0.297167
335.8000	0.287243
335.7000	0.302985
335.6000	0.318067
335.5000	0.307237
335.4000	0.316482
335.3000	0.327328
335.2000	0.324587
335.1000	0.334304
335.0000	0.315608
334.9000	0.321843
334.8000	0.290681
334.7000	0.284838
334.6000	0.274095
334.5000	0.268281
334.4000	0.279786
334.3000	0.297607
334.2000	0.302194
334.1000	0.296655
334.0000	0.287837
333.9000	0.268421
333.8000	0.242149
333.7000	0.2396
333.6000	0.242601
333.5000	0.251542
333.4000	0.248543
333.3000	0.259141
333.2000	0.250863
333.1000	0.254253
333.0000	0.263199
332.9000	0.267927
332.8000	0.264571
332.7000	0.257942
332.6000	0.254623
332.5000	0.245184
332.4000	0.262757
332.3000	0.288832
332.2000	0.291571
332.1000	0.282806
332.0000	0.287868
331.9000	0.265637
331.8000	0.2707
331.7000	0.255708
331.6000	0.281699
331.5000	0.28035
331.4000	0.288527
331.3000	0.291664
331.2000	0.280132
331.1000	0.271323
331.0000	0.276348
330.9000	0.274491
330.8000	0.264259
330.7000	0.261355
330.6000	0.288183
330.5000	0.282243
330.4000	0.284292
330.3000	0.296092
330.2000	0.299238
330.1000	0.294096
330.0000	0.269097
329.9000	0.285973
329.8000	0.252979
329.7000	0.245092
329.6000	0.258659
329.5000	0.255423
329.4000	0.275902
329.3000	0.2686
329.2000	0.272082
329.1000	0.269307
329.0000	0.254982
328.9000	0.254389
328.8000	0.236423
328.7000	0.223149
328.6000	0.212283
328.5000	0.249303
328.4000	0.242294
328.3000	0.227043
328.2000	0.261526
328.1000	0.27402
328.0000	0.256851
327.9000	0.266497
327.8000	0.252483
327.7000	0.261908
327.6000	0.235146
327.5000	0.222157
327.4000	0.224859
327.3000	0.216792
327.2000	0.221627
327.1000	0.226218
327.0000	0.245078
326.9000	0.219371
326.8000	0.248328
326.7000	0.242862
326.6000	0.225403
326.5000	0.232262
326.4000	0.231198
326.3000	0.212291
326.2000	0.20944
326.1000	0.202302
326.0000	0.230618
325.9000	0.249591
325.8000	0.255147
325.7000	0.300812
325.6000	0.298569
325.5000	0.317534
325.4000	0.319666
325.3000	0.326396
325.2000	0.308174
325.1000	0.315671
325.0000	0.311846
324.9000	0.278445
324.8000	0.276922
324.7000	0.290857
324.6000	0.284089
324.5000	0.291378
324.4000	0.294988
324.3000	0.271075
324.2000	0.260593
324.1000	0.239833
324.0000	0.244988
323.9000	0.225003
323.8000	0.207673
323.7000	0.208068
323.6000	0.212587
323.5000	0.213647
323.4000	0.207333
323.3000	0.206278
323.2000	0.200911
323.1000	0.192372
323.0000	0.197923
322.9000	0.192068
322.8000	0.183223
322.7000	0.207771
322.6000	0.21447
322.5000	0.199025
322.4000	0.206492
322.3000	0.199271
322.2000	0.183032
322.1000	0.17241
322.0000	0.190192
321.9000	0.187427
321.8000	0.197067
321.7000	0.202576
321.6000	0.209444
321.5000	0.21529
321.4000	0.210823
321.3000	0.210453
321.2000	0.208099
321.1000	0.209766
321.0000	0.209378
320.9000	0.203441
320.8000	0.185586
320.7000	0.210974
320.6000	0.24713
320.5000	0.259718
320.4000	0.238451
320.3000	0.237901
320.2000	0.242495
320.1000	0.237957
320.0000	0.241474
319.9000	0.231158
319.8000	0.222996
319.7000	0.225596
319.6000	0.222012
319.5000	0.217916
319.4000	0.211827
319.3000	0.226576
319.2000	0.215239
319.1000	0.196707
319.0000	0.183997
318.9000	0.17058
318.8000	0.179533
318.7000	0.188717
318.6000	0.193233
318.5000	0.203778
318.4000	0.187781
318.3000	0.205358
318.2000	0.232997
318.1000	0.224973
318.0000	0.22536
317.9000	0.209872
317.8000	0.228163
317.7000	0.230666
317.6000	0.244456
317.5000	0.250072
317.4000	0.242116
317.3000	0.246858
317.2000	0.244103
317.1000	0.242228
317.0000	0.229376
316.9000	0.226448
316.8000	0.260948
316.7000	0.25486
316.6000	0.232739
316.5000	0.244419
316.4000	0.231366
316.3000	0.230534
316.2000	0.211007
316.1000	0.210481
316.0000	0.206598
315.9000	0.201819
315.8000	0.208343
315.7000	0.204384
315.6000	0.199462
315.5000	0.190813
315.4000	0.189046
315.3000	0.208369
315.2000	0.192734
315.1000	0.183537
315.0000	0.194393
314.9000	0.191584
314.8000	0.202663
314.7000	0.197704
314.6000	0.215699
314.5000	0.215162
314.4000	0.223847
314.3000	0.237972
314.2000	0.231833
314.1000	0.233258
314.0000	0.24193
313.9000	0.234046
313.8000	0.244928
313.7000	0.238009
313.6000	0.228567
313.5000	0.23503
313.4000	0.218107
313.3000	0.194158
313.2000	0.192541
313.1000	0.21564
313.0000	0.197292
312.9000	0.186566
312.8000	0.186359
312.7000	0.167646
312.6000	0.164332
312.5000	0.160781
312.4000	0.15962
312.3000	0.161406
312.2000	0.148824
312.1000	0.153703
312.0000	0.1521
311.9000	0.142935
311.8000	0.143793
311.7000	0.170773
311.6000	0.183011
311.5000	0.167667
311.4000	0.17761
311.3000	0.180264
311.2000	0.166432
311.1000	0.166206
311.0000	0.170928
310.9000	0.177328
310.8000	0.168331
310.7000	0.201335
310.6000	0.215155
310.5000	0.193868
310.4000	0.207637
310.3000	0.220757
310.2000	0.227483
310.1000	0.212542
310.0000	0.213181
309.9000	0.233822
309.8000	0.232282
309.7000	0.233921
309.6000	0.243605
309.5000	0.245515
309.4000	0.242393
309.3000	0.247799
309.2000	0.247137
309.1000	0.226578
309.0000	0.22817
308.9000	0.225698
308.8000	0.224959
308.7000	0.221105
308.6000	0.214645
308.5000	0.229906
308.4000	0.218941
308.3000	0.202866
308.2000	0.203276
308.1000	0.196954
308.0000	0.193439
307.9000	0.203919
307.8000	0.200067
307.7000	0.200863
307.6000	0.212125
307.5000	0.194003
307.4000	0.189637
307.3000	0.188926
307.2000	0.180107
307.1000	0.168415
307.0000	0.188911
306.9000	0.183054
306.8000	0.182706
306.7000	0.183689
306.6000	0.182631
306.5000	0.195585
306.4000	0.202073
306.3000	0.189103
306.2000	0.195183
306.1000	0.182927
306.0000	0.164678
305.9000	0.179334
305.8000	0.180919
305.7000	0.188851
305.6000	0.215749
305.5000	0.227877
305.4000	0.218882
305.3000	0.222982
305.2000	0.216342
305.1000	0.222549
305.0000	0.214498
304.9000	0.223181
304.8000	0.218807
304.7000	0.221341
304.6000	0.223182
304.5000	0.228775
304.4000	0.227536
304.3000	0.233074
304.2000	0.234162
304.1000	0.237467
304.0000	0.211678
303.9000	0.199363
303.8000	0.192359
303.7000	0.184578
303.6000	0.198034
303.5000	0.202093
303.4000	0.2055
303.3000	0.189519
303.2000	0.202331
303.1000	0.208278
303.0000	0.205802
302.9000	0.206111
302.8000	0.214905
302.7000	0.198072
302.6000	0.202009
302.5000	0.188001
302.4000	0.201638
302.3000	0.195253
302.2000	0.188622
302.1000	0.187816
302.0000	0.186071
301.9000	0.184225
301.8000	0.193631
301.7000	0.188234
301.6000	0.171889
301.5000	0.165373
301.4000	0.156668
301.3000	0.147166
301.2000	0.146844
301.1000	0.161801
301.0000	0.144912
300.9000	0.161094
300.8000	0.161509
300.7000	0.168738
300.6000	0.178979
300.5000	0.188887
300.4000	0.184986
300.3000	0.179005
300.2000	0.164665
300.1000	0.17961
300.0000	0.179243
