TITLE	12_7
DATA TYPE	ULTRAVIOLET SPECTRUM
ORIGIN	JASCO
OWNER	
DATE	21/05/05
TIME	17:32:36
SPECTROMETER/DATA SYSTEM	
RESOLUTION	
DELTAX	-0.1
XUNITS	NANOMETERS
YUNITS	TRANSMITTANCE
FIRSTX	  850.0000
LASTX	  300.0000
NPOINTS	    5501
FIRSTY	    83.09200
MAXY	    85.22060
MINY	     0.13344
XYDATA
850.0000	83.092
849.9000	83.1079
849.8000	82.9964
849.7000	82.9601
849.6000	83.1335
849.5000	83.1904
849.4000	83.4375
849.3000	83.406
849.2000	83.5426
849.1000	83.5109
849.0000	83.5787
848.9000	83.7775
848.8000	83.8761
848.7000	83.7488
848.6000	83.7726
848.5000	84.0442
848.4000	84.2198
848.3000	84.3395
848.2000	84.5781
848.1000	84.7311
848.0000	84.7564
847.9000	84.8404
847.8000	84.7775
847.7000	84.6815
847.6000	84.7331
847.5000	84.7373
847.4000	84.7827
847.3000	84.9866
847.2000	85.0568
847.1000	85.2206
847.0000	85.1095
846.9000	84.7981
846.8000	84.8736
846.7000	84.9305
846.6000	84.852
846.5000	84.8693
846.4000	84.7205
846.3000	84.7223
846.2000	84.6322
846.1000	84.8098
846.0000	84.5662
845.9000	84.5004
845.8000	84.4891
845.7000	84.2132
845.6000	84.0767
845.5000	83.9144
845.4000	83.9022
845.3000	83.9488
845.2000	83.8753
845.1000	83.69
845.0000	83.5405
844.9000	83.3415
844.8000	83.4381
844.7000	83.1977
844.6000	83.1989
844.5000	83.0719
844.4000	83.1525
844.3000	83.0735
844.2000	82.9856
844.1000	82.8269
844.0000	82.8525
843.9000	82.7893
843.8000	82.8687
843.7000	82.6835
843.6000	82.4719
843.5000	82.5078
843.4000	82.3991
843.3000	82.447
843.2000	82.16
843.1000	82.1228
843.0000	81.9052
842.9000	81.8016
842.8000	81.4902
842.7000	81.2602
842.6000	81.1012
842.5000	81.2153
842.4000	81.0099
842.3000	80.9271
842.2000	80.5818
842.1000	80.4461
842.0000	80.2315
841.9000	80.0274
841.8000	79.9718
841.7000	79.644
841.6000	79.4563
841.5000	79.2507
841.4000	79.2441
841.3000	79.1406
841.2000	79.143
841.1000	79.2139
841.0000	79.078
840.9000	78.6178
840.8000	78.2801
840.7000	77.9477
840.6000	77.7868
840.5000	77.6186
840.4000	77.4863
840.3000	77.3303
840.2000	76.965
840.1000	76.9482
840.0000	76.7487
839.9000	76.7711
839.8000	76.5964
839.7000	76.4069
839.6000	76.2136
839.5000	75.9922
839.4000	75.9948
839.3000	76.0112
839.2000	76.1352
839.1000	76.1506
839.0000	76.1452
838.9000	76.0573
838.8000	76.0257
838.7000	75.9071
838.6000	75.9858
838.5000	75.7053
838.4000	75.7807
838.3000	75.5558
838.2000	75.3447
838.1000	75.2126
838.0000	75.201
837.9000	75.2496
837.8000	74.9508
837.7000	74.8392
837.6000	74.7321
837.5000	74.6392
837.4000	74.4644
837.3000	74.2125
837.2000	74.081
837.1000	74.1016
837.0000	73.9553
836.9000	73.7685
836.8000	73.7125
836.7000	73.5888
836.6000	73.6053
836.5000	73.4961
836.4000	73.4054
836.3000	73.2305
836.2000	73.3806
836.1000	73.3414
836.0000	73.2472
835.9000	73.1169
835.8000	73.1553
835.7000	73.3291
835.6000	73.2516
835.5000	73.2186
835.4000	73.242
835.3000	73.358
835.2000	73.2393
835.1000	73.3748
835.0000	73.3064
834.9000	73.3783
834.8000	73.2898
834.7000	73.3716
834.6000	73.2758
834.5000	73.1472
834.4000	73.1285
834.3000	73.1917
834.2000	73.1512
834.1000	73.1418
834.0000	73.1703
833.9000	73.0912
833.8000	73.0766
833.7000	73.2447
833.6000	73.2067
833.5000	73.1302
833.4000	73.1845
833.3000	73.2873
833.2000	73.3487
833.1000	73.3739
833.0000	73.6102
832.9000	73.7545
832.8000	73.8091
832.7000	73.8626
832.6000	73.964
832.5000	74.1043
832.4000	74.2508
832.3000	74.2848
832.2000	74.4014
832.1000	74.3029
832.0000	74.5219
831.9000	74.68
831.8000	74.7408
831.7000	74.7478
831.6000	74.8806
831.5000	74.9237
831.4000	74.849
831.3000	75.0787
831.2000	75.3811
831.1000	75.4576
831.0000	75.5535
830.9000	75.6163
830.8000	75.6961
830.7000	75.8069
830.6000	75.8664
830.5000	76.1274
830.4000	76.2905
830.3000	76.4544
830.2000	76.4637
830.1000	76.7141
830.0000	76.8349
829.9000	76.9852
829.8000	77.0291
829.7000	77.124
829.6000	77.1561
829.5000	77.3605
829.4000	77.5192
829.3000	77.6308
829.2000	77.7848
829.1000	78.0409
829.0000	78.2473
828.9000	78.3953
828.8000	78.4478
828.7000	78.4866
828.6000	78.7714
828.5000	78.8291
828.4000	78.9619
828.3000	79.0188
828.2000	79.2878
828.1000	79.2774
828.0000	79.3405
827.9000	79.488
827.8000	79.6229
827.7000	79.7099
827.6000	79.7928
827.5000	79.8218
827.4000	79.8467
827.3000	79.9372
827.2000	80.113
827.1000	80.2514
827.0000	80.485
826.9000	80.6221
826.8000	80.8139
826.7000	80.94
826.6000	81.0907
826.5000	81.3146
826.4000	81.5549
826.3000	81.5858
826.2000	81.6008
826.1000	81.7273
826.0000	81.8042
825.9000	81.8907
825.8000	82.065
825.7000	82.2411
825.6000	82.4782
825.5000	82.6262
825.4000	82.5883
825.3000	82.8031
825.2000	82.8894
825.1000	83.0199
825.0000	83.041
824.9000	83.2031
824.8000	83.2742
824.7000	83.4113
824.6000	83.4573
824.5000	83.5416
824.4000	83.8476
824.3000	83.9762
824.2000	84.0102
824.1000	83.9522
824.0000	83.9622
823.9000	84.0112
823.8000	84.1021
823.7000	83.9823
823.6000	84.0808
823.5000	84.1846
823.4000	84.202
823.3000	84.2396
823.2000	84.0257
823.1000	84.232
823.0000	84.3644
822.9000	84.5382
822.8000	84.3554
822.7000	84.4516
822.6000	84.5354
822.5000	84.6959
822.4000	84.6443
822.3000	84.4902
822.2000	84.5935
822.1000	84.586
822.0000	84.5393
821.9000	84.4648
821.8000	84.542
821.7000	84.4189
821.6000	84.4696
821.5000	84.1813
821.4000	84.1434
821.3000	84.0459
821.2000	84.0729
821.1000	84.0185
821.0000	83.9228
820.9000	83.8135
820.8000	83.7374
820.7000	83.8407
820.6000	83.6315
820.5000	83.5859
820.4000	83.562
820.3000	83.491
820.2000	83.335
820.1000	83.2901
820.0000	83.3397
819.9000	83.2289
819.8000	83.2403
819.7000	83.1406
819.6000	83.0195
819.5000	82.826
819.4000	82.7337
819.3000	82.5865
819.2000	82.431
819.1000	82.2374
819.0000	82.2589
818.9000	82.0453
818.8000	81.854
818.7000	81.7109
818.6000	81.6008
818.5000	81.4844
818.4000	81.3315
818.3000	81.4174
818.2000	81.1752
818.1000	80.976
818.0000	80.9035
817.9000	80.7362
817.8000	80.5854
817.7000	80.4701
817.6000	80.3895
817.5000	80.1953
817.4000	79.9092
817.3000	79.8765
817.2000	79.7356
817.1000	79.6006
817.0000	79.3479
816.9000	79.0969
816.8000	78.9265
816.7000	78.6735
816.6000	78.4173
816.5000	78.1858
816.4000	77.9477
816.3000	77.8863
816.2000	77.8064
816.1000	77.7642
816.0000	77.5696
815.9000	77.4898
815.8000	77.34
815.7000	77.0909
815.6000	76.8518
815.5000	76.7019
815.4000	76.4371
815.3000	76.3919
815.2000	76.2751
815.1000	76.0676
815.0000	76.0411
814.9000	76.0565
814.8000	75.8899
814.7000	75.6759
814.6000	75.4932
814.5000	75.3673
814.4000	75.3487
814.3000	75.2055
814.2000	75.1635
814.1000	75.1157
814.0000	74.9694
813.9000	74.8683
813.8000	74.9837
813.7000	74.8169
813.6000	74.6967
813.5000	74.6754
813.4000	74.6249
813.3000	74.4315
813.2000	74.4216
813.1000	74.3593
813.0000	74.1776
812.9000	74.025
812.8000	73.8406
812.7000	73.7718
812.6000	73.6539
812.5000	73.616
812.4000	73.5422
812.3000	73.483
812.2000	73.3175
812.1000	73.1779
812.0000	73.0633
811.9000	72.9527
811.8000	72.9311
811.7000	72.9065
811.6000	72.8072
811.5000	72.6987
811.4000	72.7735
811.3000	72.6475
811.2000	72.699
811.1000	72.8389
811.0000	72.9279
810.9000	72.9248
810.8000	73.0957
810.7000	73.0771
810.6000	73.1677
810.5000	73.2608
810.4000	73.3306
810.3000	73.4593
810.2000	73.3543
810.1000	73.4151
810.0000	73.4568
809.9000	73.6904
809.8000	73.7206
809.7000	73.7844
809.6000	73.7698
809.5000	73.7193
809.4000	73.6837
809.3000	73.6429
809.2000	73.6405
809.1000	73.7311
809.0000	73.7498
808.9000	73.8217
808.8000	73.868
808.7000	73.9735
808.6000	74.1015
808.5000	74.1986
808.4000	74.2516
808.3000	74.2503
808.2000	74.3393
808.1000	74.4875
808.0000	74.5693
807.9000	74.6353
807.8000	74.6868
807.7000	74.8285
807.6000	74.9867
807.5000	75.0631
807.4000	75.1392
807.3000	75.3499
807.2000	75.5675
807.1000	75.5159
807.0000	75.616
806.9000	75.8086
806.8000	75.9685
806.7000	75.9611
806.6000	76.098
806.5000	76.1894
806.4000	76.2673
806.3000	76.4604
806.2000	76.5983
806.1000	76.7614
806.0000	76.8808
805.9000	77.1644
805.8000	77.3124
805.7000	77.4808
805.6000	77.5173
805.5000	77.7766
805.4000	77.905
805.3000	77.9485
805.2000	78.0723
805.1000	78.2858
805.0000	78.5379
804.9000	78.755
804.8000	79.0432
804.7000	79.2225
804.6000	79.441
804.5000	79.6635
804.4000	79.735
804.3000	79.7
804.2000	79.931
804.1000	80.0433
804.0000	80.2327
803.9000	80.3999
803.8000	80.6706
803.7000	80.9069
803.6000	81.1753
803.5000	81.396
803.4000	81.5619
803.3000	81.6465
803.2000	81.6775
803.1000	81.7293
803.0000	81.9625
802.9000	81.9541
802.8000	82.0746
802.7000	82.1839
802.6000	82.3317
802.5000	82.5293
802.4000	82.6291
802.3000	82.8254
802.2000	82.8138
802.1000	82.8901
802.0000	82.9879
801.9000	83.1478
801.8000	83.1083
801.7000	83.3162
801.6000	83.4919
801.5000	83.6427
801.4000	83.5771
801.3000	83.7314
801.2000	83.7861
801.1000	83.9946
801.0000	84.0659
800.9000	83.9028
800.8000	83.9024
800.7000	83.8951
800.6000	84.071
800.5000	84.0508
800.4000	84.027
800.3000	84.0944
800.2000	84.1349
800.1000	84.2149
800.0000	84.2174
799.9000	84.2675
799.8000	84.2556
799.7000	84.1985
799.6000	84.1879
799.5000	84.0186
799.4000	84.0577
799.3000	84.2455
799.2000	84.2834
799.1000	84.3066
799.0000	84.2223
798.9000	84.2673
798.8000	84.2141
798.7000	84.2591
798.6000	84.1398
798.5000	84.0431
798.4000	84.0559
798.3000	84.0373
798.2000	84.1028
798.1000	84.177
798.0000	84.149
797.9000	84.1639
797.8000	83.986
797.7000	83.8467
797.6000	83.8172
797.5000	83.5784
797.4000	83.4187
797.3000	83.2507
797.2000	83.1474
797.1000	82.8829
797.0000	82.806
796.9000	82.594
796.8000	82.4682
796.7000	82.2565
796.6000	82.0809
796.5000	82.0125
796.4000	81.9639
796.3000	81.9021
796.2000	81.8001
796.1000	81.623
796.0000	81.5026
795.9000	81.4986
795.8000	81.4417
795.7000	81.3063
795.6000	81.2214
795.5000	81.0206
795.4000	80.8756
795.3000	80.7294
795.2000	80.5514
795.1000	80.3848
795.0000	80.2175
794.9000	80.0554
794.8000	79.9199
794.7000	79.7942
794.6000	79.6822
794.5000	79.5554
794.4000	79.393
794.3000	79.1303
794.2000	78.9161
794.1000	78.7767
794.0000	78.5978
793.9000	78.5497
793.8000	78.5387
793.7000	78.4224
793.6000	78.3051
793.5000	78.2106
793.4000	78.0294
793.3000	77.8223
793.2000	77.583
793.1000	77.3104
793.0000	77.0991
792.9000	76.9193
792.8000	76.6157
792.7000	76.474
792.6000	76.2694
792.5000	76.0897
792.4000	75.8725
792.3000	75.7092
792.2000	75.4669
792.1000	75.3885
792.0000	75.2531
791.9000	75.0302
791.8000	74.913
791.7000	74.7969
791.6000	74.7072
791.5000	74.7098
791.4000	74.6418
791.3000	74.5833
791.2000	74.5775
791.1000	74.4333
791.0000	74.4465
790.9000	74.3468
790.8000	74.2661
790.7000	74.2543
790.6000	74.0517
790.5000	73.9305
790.4000	73.8046
790.3000	73.8474
790.2000	73.7494
790.1000	73.5682
790.0000	73.479
789.9000	73.312
789.8000	73.2077
789.7000	73.126
789.6000	73.0808
789.5000	73.0484
789.4000	73.0389
789.3000	73.0132
789.2000	72.9728
789.1000	72.7824
789.0000	72.8694
788.9000	72.7458
788.8000	72.653
788.7000	72.4891
788.6000	72.5218
788.5000	72.5535
788.4000	72.635
788.3000	72.7924
788.2000	72.8049
788.1000	72.6985
788.0000	72.7061
787.9000	72.8379
787.8000	72.8042
787.7000	72.8376
787.6000	72.9569
787.5000	73.0915
787.4000	73.1766
787.3000	73.256
787.2000	73.3142
787.1000	73.4877
787.0000	73.5926
786.9000	73.6873
786.8000	73.6795
786.7000	73.6778
786.6000	73.745
786.5000	73.9113
786.4000	74.0182
786.3000	74.071
786.2000	74.2558
786.1000	74.348
786.0000	74.3686
785.9000	74.4381
785.8000	74.5683
785.7000	74.7119
785.6000	74.888
785.5000	74.925
785.4000	75.0795
785.3000	75.2217
785.2000	75.3632
785.1000	75.5391
785.0000	75.6808
784.9000	75.9013
784.8000	76.0177
784.7000	76.0223
784.6000	76.0622
784.5000	76.2347
784.4000	76.4026
784.3000	76.5807
784.2000	76.7026
784.1000	76.7825
784.0000	76.9648
783.9000	77.1287
783.8000	77.238
783.7000	77.3543
783.6000	77.5297
783.5000	77.6316
783.4000	77.7844
783.3000	77.991
783.2000	78.1836
783.1000	78.4509
783.0000	78.6996
782.9000	78.8449
782.8000	79.0744
782.7000	79.1941
782.6000	79.3216
782.5000	79.5469
782.4000	79.6959
782.3000	79.9004
782.2000	80.0237
782.1000	80.2187
782.0000	80.4104
781.9000	80.5314
781.8000	80.7333
781.7000	80.7463
781.6000	80.8434
781.5000	80.8748
781.4000	80.9628
781.3000	81.1546
781.2000	81.3069
781.1000	81.4693
781.0000	81.608
780.9000	81.7968
780.8000	81.9576
780.7000	82.0776
780.6000	82.2523
780.5000	82.4463
780.4000	82.5373
780.3000	82.6534
780.2000	82.7014
780.1000	82.84
780.0000	82.9612
779.9000	83.1788
779.8000	83.2342
779.7000	83.2638
779.6000	83.263
779.5000	83.3905
779.4000	83.4687
779.3000	83.4938
779.2000	83.5392
779.1000	83.6986
779.0000	83.8361
778.9000	83.7781
778.8000	83.8244
778.7000	83.9684
778.6000	84.0591
778.5000	84.1673
778.4000	84.2806
778.3000	84.2634
778.2000	84.3162
778.1000	84.5128
778.0000	84.5647
777.9000	84.5033
777.8000	84.5078
777.7000	84.5568
777.6000	84.5381
777.5000	84.4748
777.4000	84.3713
777.3000	84.4096
777.2000	84.3588
777.1000	84.1938
777.0000	84.1398
776.9000	83.9962
776.8000	83.8194
776.7000	83.8134
776.6000	83.7151
776.5000	83.5253
776.4000	83.3987
776.3000	83.3411
776.2000	83.2687
776.1000	83.1218
776.0000	83.0074
775.9000	82.8937
775.8000	82.7373
775.7000	82.636
775.6000	82.6387
775.5000	82.6148
775.4000	82.4755
775.3000	82.3449
775.2000	82.2957
775.1000	82.2072
775.0000	82.0459
774.9000	81.8621
774.8000	81.7517
774.7000	81.6316
774.6000	81.4994
774.5000	81.3831
774.4000	81.2501
774.3000	80.9803
774.2000	80.9257
774.1000	80.6633
774.0000	80.42
773.9000	80.2048
773.8000	80.0738
773.7000	79.9503
773.6000	79.8131
773.5000	79.6693
773.4000	79.6281
773.3000	79.552
773.2000	79.4225
773.1000	79.1986
773.0000	79.0198
772.9000	78.7896
772.8000	78.5656
772.7000	78.4499
772.6000	78.2332
772.5000	78.1615
772.4000	77.892
772.3000	77.7306
772.2000	77.5105
772.1000	77.3337
772.0000	77.0594
771.9000	76.9062
771.8000	76.703
771.7000	76.5609
771.6000	76.3639
771.5000	76.2207
771.4000	76.1031
771.3000	76.0829
771.2000	75.969
771.1000	75.7966
771.0000	75.6295
770.9000	75.4313
770.8000	75.455
770.7000	75.292
770.6000	75.1715
770.5000	75.0402
770.4000	74.9415
770.3000	74.8118
770.2000	74.6154
770.1000	74.4605
770.0000	74.371
769.9000	74.2538
769.8000	74.1306
769.7000	73.8672
769.6000	73.7627
769.5000	73.6556
769.4000	73.6157
769.3000	73.4534
769.2000	73.2491
769.1000	73.1775
769.0000	73.1963
768.9000	73.0741
768.8000	72.9714
768.7000	72.8172
768.6000	72.7829
768.5000	72.7039
768.4000	72.6506
768.3000	72.5969
768.2000	72.4609
768.1000	72.4967
768.0000	72.4941
767.9000	72.5088
767.8000	72.407
767.7000	72.487
767.6000	72.4737
767.5000	72.4813
767.4000	72.4393
767.3000	72.5122
767.2000	72.5977
767.1000	72.5752
767.0000	72.5474
766.9000	72.5395
766.8000	72.5487
766.7000	72.5981
766.6000	72.7282
766.5000	72.684
766.4000	72.6707
766.3000	72.7667
766.2000	72.8364
766.1000	72.8715
766.0000	72.9662
765.9000	73.1027
765.8000	73.1517
765.7000	73.1486
765.6000	73.1862
765.5000	73.3514
765.4000	73.498
765.3000	73.6406
765.2000	73.7786
765.1000	73.8967
765.0000	73.9691
764.9000	74.1759
764.8000	74.4007
764.7000	74.4959
764.6000	74.5847
764.5000	74.7381
764.4000	74.8693
764.3000	75.0006
764.2000	75.1367
764.1000	75.315
764.0000	75.4565
763.9000	75.5102
763.8000	75.6302
763.7000	75.7374
763.6000	75.8211
763.5000	75.9386
763.4000	76.0212
763.3000	76.1759
763.2000	76.3226
763.1000	76.4426
763.0000	76.6317
762.9000	76.8167
762.8000	76.9821
762.7000	77.1079
762.6000	77.2516
762.5000	77.486
762.4000	77.6812
762.3000	77.9427
762.2000	78.1539
762.1000	78.3387
762.0000	78.6108
761.9000	78.7723
761.8000	79.0747
761.7000	79.2109
761.6000	79.3498
761.5000	79.5111
761.4000	79.7371
761.3000	79.8372
761.2000	79.9984
761.1000	80.1325
761.0000	80.3341
760.9000	80.4502
760.8000	80.6035
760.7000	80.6722
760.6000	80.8598
760.5000	81.0337
760.4000	81.1136
760.3000	81.3115
760.2000	81.4526
760.1000	81.6085
760.0000	81.7726
759.9000	82.0147
759.8000	82.0832
759.7000	82.3316
759.6000	82.474
759.5000	82.5194
759.4000	82.6913
759.3000	82.8409
759.2000	82.9627
759.1000	83.1688
759.0000	83.2122
758.9000	83.2221
758.8000	83.3018
758.7000	83.3101
758.6000	83.4214
758.5000	83.515
758.4000	83.5089
758.3000	83.453
758.2000	83.573
758.1000	83.6239
758.0000	83.6906
757.9000	83.8794
757.8000	83.8773
757.7000	83.8807
757.6000	83.8706
757.5000	83.8848
757.4000	83.8664
757.3000	83.921
757.2000	83.9665
757.1000	84.1187
757.0000	84.06
756.9000	84.1114
756.8000	84.0341
756.7000	84.0562
756.6000	83.989
756.5000	83.8751
756.4000	83.8422
756.3000	83.7233
756.2000	83.6454
756.1000	83.6794
756.0000	83.6434
755.9000	83.541
755.8000	83.4965
755.7000	83.4029
755.6000	83.2889
755.5000	83.066
755.4000	82.9389
755.3000	82.7297
755.2000	82.6564
755.1000	82.453
755.0000	82.3728
754.9000	82.2417
754.8000	82.0259
754.7000	81.8658
754.6000	81.6822
754.5000	81.4812
754.4000	81.3617
754.3000	81.1359
754.2000	80.9716
754.1000	80.8809
754.0000	80.6922
753.9000	80.5272
753.8000	80.3532
753.7000	80.2138
753.6000	80.1036
753.5000	80.1423
753.4000	79.8673
753.3000	79.6256
753.2000	79.4932
753.1000	79.3139
753.0000	79.1841
752.9000	78.9514
752.8000	78.7118
752.7000	78.5229
752.6000	78.306
752.5000	78.0747
752.4000	77.9099
752.3000	77.71
752.2000	77.5463
752.1000	77.3316
752.0000	77.1221
751.9000	76.793
751.8000	76.6678
751.7000	76.5573
751.6000	76.374
751.5000	76.1653
751.4000	75.9929
751.3000	75.8334
751.2000	75.708
751.1000	75.6379
751.0000	75.5108
750.9000	75.2966
750.8000	75.078
750.7000	75.0478
750.6000	74.854
750.5000	74.8243
750.4000	74.7191
750.3000	74.5375
750.2000	74.4318
750.1000	74.2215
750.0000	74.0365
749.9000	73.8505
749.8000	73.6699
749.7000	73.5271
749.6000	73.3078
749.5000	73.174
749.4000	73.0655
749.3000	73.0019
749.2000	72.9288
749.1000	72.7289
749.0000	72.6183
748.9000	72.4375
748.8000	72.2898
748.7000	72.2714
748.6000	72.1645
748.5000	72.1205
748.4000	72.0733
748.3000	72.1097
748.2000	72.1028
748.1000	72.0526
748.0000	72.0569
747.9000	72.0101
747.8000	71.9883
747.7000	71.9819
747.6000	71.9528
747.5000	71.9821
747.4000	72.0197
747.3000	72.0322
747.2000	72.0829
747.1000	72.0172
747.0000	72.0472
746.9000	72.0955
746.8000	72.2224
746.7000	72.2257
746.6000	72.2367
746.5000	72.3352
746.4000	72.3967
746.3000	72.4883
746.2000	72.5423
746.1000	72.6122
746.0000	72.7085
745.9000	72.6931
745.8000	72.752
745.7000	72.8103
745.6000	72.8694
745.5000	73.0563
745.4000	73.1203
745.3000	73.3001
745.2000	73.3441
745.1000	73.4865
745.0000	73.6182
744.9000	73.7166
744.8000	73.8987
744.7000	73.9835
744.6000	74.2069
744.5000	74.2913
744.4000	74.411
744.3000	74.6839
744.2000	74.8653
744.1000	75.0396
744.0000	75.2535
743.9000	75.3544
743.8000	75.5174
743.7000	75.5467
743.6000	75.7799
743.5000	76.0001
743.4000	76.2125
743.3000	76.3389
743.2000	76.4568
743.1000	76.6894
743.0000	76.7477
742.9000	77.0064
742.8000	77.2343
742.7000	77.3635
742.6000	77.4836
742.5000	77.7042
742.4000	77.8564
742.3000	78.1301
742.2000	78.3586
742.1000	78.5665
742.0000	78.7159
741.9000	78.8816
741.8000	79.0478
741.7000	79.3137
741.6000	79.4871
741.5000	79.6375
741.4000	79.8685
741.3000	79.986
741.2000	80.1316
741.1000	80.2515
741.0000	80.5815
740.9000	80.658
740.8000	80.8654
740.7000	80.9664
740.6000	81.1178
740.5000	81.3226
740.4000	81.38
740.3000	81.59
740.2000	81.7036
740.1000	81.8209
740.0000	81.9849
739.9000	82.1632
739.8000	82.1949
739.7000	82.3452
739.6000	82.4464
739.5000	82.5979
739.4000	82.7661
739.3000	82.8989
739.2000	83.0385
739.1000	83.0615
739.0000	83.1828
738.9000	83.2359
738.8000	83.3032
738.7000	83.4147
738.6000	83.5172
738.5000	83.6378
738.4000	83.7106
738.3000	83.7103
738.2000	83.7678
738.1000	83.6945
738.0000	83.6813
737.9000	83.6544
737.8000	83.5803
737.7000	83.5969
737.6000	83.6116
737.5000	83.5541
737.4000	83.539
737.3000	83.4793
737.2000	83.4913
737.1000	83.3867
737.0000	83.3117
736.9000	83.1297
736.8000	82.9885
736.7000	82.8332
736.6000	82.6578
736.5000	82.6196
736.4000	82.5113
736.3000	82.4236
736.2000	82.2989
736.1000	82.1893
736.0000	81.9681
735.9000	81.9404
735.8000	81.7846
735.7000	81.6882
735.6000	81.5422
735.5000	81.4419
735.4000	81.286
735.3000	81.1635
735.2000	81.0442
735.1000	80.9615
735.0000	80.8923
734.9000	80.7712
734.8000	80.6192
734.7000	80.4057
734.6000	80.2644
734.5000	80.0522
734.4000	79.914
734.3000	79.7612
734.2000	79.5459
734.1000	79.3265
734.0000	79.1266
733.9000	78.9102
733.8000	78.6762
733.7000	78.4558
733.6000	78.2713
733.5000	78.0585
733.4000	77.8161
733.3000	77.5663
733.2000	77.3666
733.1000	77.1932
733.0000	76.9899
732.9000	76.7843
732.8000	76.5606
732.7000	76.3169
732.6000	76.1487
732.5000	76.001
732.4000	75.7795
732.3000	75.6045
732.2000	75.4763
732.1000	75.3058
732.0000	75.0628
731.9000	74.907
731.8000	74.7614
731.7000	74.6044
731.6000	74.4206
731.5000	74.2642
731.4000	74.0392
731.3000	73.867
731.2000	73.7096
731.1000	73.4894
731.0000	73.2855
730.9000	73.1269
730.8000	72.9872
730.7000	72.8225
730.6000	72.6506
730.5000	72.5281
730.4000	72.4763
730.3000	72.3151
730.2000	72.1824
730.1000	72.0744
730.0000	72.0408
729.9000	71.8855
729.8000	71.9072
729.7000	71.8401
729.6000	71.8153
729.5000	71.8247
729.4000	71.8896
729.3000	71.856
729.2000	71.8659
729.1000	71.7974
729.0000	71.766
728.9000	71.7635
728.8000	71.7504
728.7000	71.817
728.6000	71.8481
728.5000	71.8062
728.4000	71.7869
728.3000	71.8228
728.2000	71.7723
728.1000	71.7642
728.0000	71.7979
727.9000	71.805
727.8000	71.7641
727.7000	71.7753
727.6000	71.7942
727.5000	71.8835
727.4000	72.0339
727.3000	72.0669
727.2000	72.154
727.1000	72.1439
727.0000	72.1555
726.9000	72.2922
726.8000	72.3253
726.7000	72.4044
726.6000	72.5029
726.5000	72.5774
726.4000	72.6757
726.3000	72.8088
726.2000	72.9572
726.1000	73.0569
726.0000	73.1831
725.9000	73.3879
725.8000	73.4665
725.7000	73.6115
725.6000	73.6679
725.5000	73.883
725.4000	74.1203
725.3000	74.2857
725.2000	74.551
725.1000	74.7354
725.0000	74.9487
724.9000	75.15
724.8000	75.2705
724.7000	75.4452
724.6000	75.5956
724.5000	75.8507
724.4000	76.0103
724.3000	76.1506
724.2000	76.3343
724.1000	76.5135
724.0000	76.7836
723.9000	76.9548
723.8000	77.1168
723.7000	77.2793
723.6000	77.3534
723.5000	77.577
723.4000	77.7856
723.3000	78.0714
723.2000	78.3267
723.1000	78.4952
723.0000	78.6818
722.9000	78.8008
722.8000	79.0466
722.7000	79.212
722.6000	79.4118
722.5000	79.5778
722.4000	79.7286
722.3000	79.8972
722.2000	80.0869
722.1000	80.2934
722.0000	80.5161
721.9000	80.7109
721.8000	80.8071
721.7000	80.9038
721.6000	80.9757
721.5000	81.189
721.4000	81.3376
721.3000	81.4944
721.2000	81.556
721.1000	81.7323
721.0000	81.8448
720.9000	82.0138
720.8000	82.1313
720.7000	82.2116
720.6000	82.2668
720.5000	82.3259
720.4000	82.4117
720.3000	82.4209
720.2000	82.4993
720.1000	82.6285
720.0000	82.6953
719.9000	82.6955
719.8000	82.7532
719.7000	82.7968
719.6000	82.8513
719.5000	82.8096
719.4000	82.8436
719.3000	82.835
719.2000	82.8143
719.1000	82.831
719.0000	82.7673
718.9000	82.7676
718.8000	82.74
718.7000	82.6545
718.6000	82.6124
718.5000	82.4312
718.4000	82.4014
718.3000	82.3054
718.2000	82.2631
718.1000	82.1507
718.0000	82.0582
717.9000	81.987
717.8000	81.8131
717.7000	81.7015
717.6000	81.5908
717.5000	81.4853
717.4000	81.4105
717.3000	81.2186
717.2000	81.0581
717.1000	80.9845
717.0000	80.8564
716.9000	80.7044
716.8000	80.5732
716.7000	80.4036
716.6000	80.1792
716.5000	80.0269
716.4000	79.871
716.3000	79.6398
716.2000	79.4977
716.1000	79.3196
716.0000	79.078
715.9000	78.8723
715.8000	78.6867
715.7000	78.4805
715.6000	78.2703
715.5000	77.9717
715.4000	77.6917
715.3000	77.492
715.2000	77.222
715.1000	77.0415
715.0000	76.8564
714.9000	76.6336
714.8000	76.4309
714.7000	76.2629
714.6000	76.0602
714.5000	75.8265
714.4000	75.7032
714.3000	75.4914
714.2000	75.2942
714.1000	75.0789
714.0000	74.8464
713.9000	74.6898
713.8000	74.5896
713.7000	74.3696
713.6000	74.2242
713.5000	74.031
713.4000	73.8616
713.3000	73.665
713.2000	73.4887
713.1000	73.302
713.0000	73.0853
712.9000	72.9384
712.8000	72.7718
712.7000	72.6512
712.6000	72.5298
712.5000	72.4721
712.4000	72.3565
712.3000	72.2488
712.2000	72.0775
712.1000	71.9695
712.0000	71.8517
711.9000	71.7315
711.8000	71.6153
711.7000	71.5927
711.6000	71.5397
711.5000	71.4418
711.4000	71.3997
711.3000	71.3177
711.2000	71.186
711.1000	71.0691
711.0000	70.975
710.9000	70.8946
710.8000	70.86
710.7000	70.8677
710.6000	70.8541
710.5000	70.8931
710.4000	70.8252
710.3000	70.8301
710.2000	70.796
710.1000	70.8143
710.0000	70.741
709.9000	70.7953
709.8000	70.8132
709.7000	70.8857
709.6000	70.9463
709.5000	71.0099
709.4000	71.0679
709.3000	71.1232
709.2000	71.2145
709.1000	71.281
709.0000	71.3661
708.9000	71.4631
708.8000	71.614
708.7000	71.7785
708.6000	71.9507
708.5000	72.0676
708.4000	72.2255
708.3000	72.3016
708.2000	72.4484
708.1000	72.6005
708.0000	72.7689
707.9000	72.9387
707.8000	73.1228
707.7000	73.3228
707.6000	73.4707
707.5000	73.6194
707.4000	73.7972
707.3000	73.9537
707.2000	74.1522
707.1000	74.3208
707.0000	74.4832
706.9000	74.6593
706.8000	74.9184
706.7000	75.1697
706.6000	75.3744
706.5000	75.5456
706.4000	75.7404
706.3000	75.9543
706.2000	76.1504
706.1000	76.3111
706.0000	76.5333
705.9000	76.7295
705.8000	76.9292
705.7000	77.1415
705.6000	77.3143
705.5000	77.4759
705.4000	77.6813
705.3000	77.8792
705.2000	78.0565
705.1000	78.2682
705.0000	78.4404
704.9000	78.6431
704.8000	78.8719
704.7000	79.0707
704.6000	79.2778
704.5000	79.4651
704.4000	79.7104
704.3000	79.8993
704.2000	80.0797
704.1000	80.2981
704.0000	80.5361
703.9000	80.7161
703.8000	80.8463
703.7000	80.9901
703.6000	81.152
703.5000	81.2975
703.4000	81.456
703.3000	81.5819
703.2000	81.7257
703.1000	81.8448
703.0000	81.9391
702.9000	82.0458
702.8000	82.0712
702.7000	82.2275
702.6000	82.3156
702.5000	82.3636
702.4000	82.3931
702.3000	82.4911
702.2000	82.5589
702.1000	82.5645
702.0000	82.4634
701.9000	82.4654
701.8000	82.5249
701.7000	82.586
701.6000	82.5495
701.5000	82.4975
701.4000	82.4521
701.3000	82.4521
701.2000	82.4087
701.1000	82.2932
701.0000	82.1788
700.9000	82.0645
700.8000	81.9632
700.7000	81.8137
700.6000	81.6883
700.5000	81.5836
700.4000	81.5936
700.3000	81.4594
700.2000	81.2715
700.1000	81.0845
700.0000	80.94
699.9000	80.7552
699.8000	80.6165
699.7000	80.4112
699.6000	80.2466
699.5000	80.0362
699.4000	79.866
699.3000	79.6499
699.2000	79.4546
699.1000	79.2717
699.0000	79.0767
698.9000	78.8317
698.8000	78.5685
698.7000	78.3386
698.6000	78.1041
698.5000	77.891
698.4000	77.6564
698.3000	77.4795
698.2000	77.2293
698.1000	77.0044
698.0000	76.7919
697.9000	76.5817
697.8000	76.4136
697.7000	76.2039
697.6000	75.9932
697.5000	75.7415
697.4000	75.5476
697.3000	75.3781
697.2000	75.1795
697.1000	75.0087
697.0000	74.8238
696.9000	74.6312
696.8000	74.4374
696.7000	74.2137
696.6000	74.0116
696.5000	73.8636
696.4000	73.6521
696.3000	73.467
696.2000	73.2251
696.1000	73.0906
696.0000	72.8842
695.9000	72.7206
695.8000	72.5321
695.7000	72.381
695.6000	72.2038
695.5000	72.0248
695.4000	71.8743
695.3000	71.7107
695.2000	71.5858
695.1000	71.4869
695.0000	71.3711
694.9000	71.2088
694.8000	71.0886
694.7000	71.0072
694.6000	70.9504
694.5000	70.8595
694.4000	70.8029
694.3000	70.7391
694.2000	70.684
694.1000	70.6269
694.0000	70.5865
693.9000	70.5482
693.8000	70.5308
693.7000	70.5008
693.6000	70.4707
693.5000	70.4139
693.4000	70.4201
693.3000	70.4406
693.2000	70.4319
693.1000	70.4575
693.0000	70.4532
692.9000	70.4897
692.8000	70.5108
692.7000	70.52
692.6000	70.5535
692.5000	70.6152
692.4000	70.6665
692.3000	70.7098
692.2000	70.8003
692.1000	70.866
692.0000	70.9387
691.9000	71.053
691.8000	71.1701
691.7000	71.2767
691.6000	71.4734
691.5000	71.5749
691.4000	71.7278
691.3000	71.8213
691.2000	71.9804
691.1000	72.1946
691.0000	72.3675
690.9000	72.5258
690.8000	72.7157
690.7000	72.9072
690.6000	73.1127
690.5000	73.3366
690.4000	73.5348
690.3000	73.7647
690.2000	73.948
690.1000	74.1687
690.0000	74.3611
689.9000	74.5915
689.8000	74.8342
689.7000	75.1106
689.6000	75.3563
689.5000	75.5794
689.4000	75.828
689.3000	76.0306
689.2000	76.2777
689.1000	76.5281
689.0000	76.7661
688.9000	76.9826
688.8000	77.2431
688.7000	77.4577
688.6000	77.6871
688.5000	77.9428
688.4000	78.1644
688.3000	78.3937
688.2000	78.6361
688.1000	78.8125
688.0000	79.0036
687.9000	79.2434
687.8000	79.4245
687.7000	79.6694
687.6000	79.8795
687.5000	80.0748
687.4000	80.2203
687.3000	80.4564
687.2000	80.6479
687.1000	80.7979
687.0000	80.9545
686.9000	81.0856
686.8000	81.1984
686.7000	81.298
686.6000	81.3837
686.5000	81.5609
686.4000	81.7456
686.3000	81.8222
686.2000	81.9612
686.1000	82.0268
686.0000	82.0959
685.9000	82.1643
685.8000	82.2229
685.7000	82.2386
685.6000	82.2164
685.5000	82.2891
685.4000	82.347
685.3000	82.3469
685.2000	82.4033
685.1000	82.4337
685.0000	82.4473
684.9000	82.3784
684.8000	82.2951
684.7000	82.2246
684.6000	82.1448
684.5000	82.1159
684.4000	81.9937
684.3000	81.9383
684.2000	81.8324
684.1000	81.7153
684.0000	81.6134
683.9000	81.4646
683.8000	81.3032
683.7000	81.1967
683.6000	81.0312
683.5000	80.8324
683.4000	80.661
683.3000	80.4934
683.2000	80.3309
683.1000	80.1407
683.0000	79.9503
682.9000	79.7558
682.8000	79.5702
682.7000	79.3807
682.6000	79.1563
682.5000	78.9238
682.4000	78.7365
682.3000	78.5284
682.2000	78.3245
682.1000	78.1571
682.0000	77.9232
681.9000	77.7321
681.8000	77.4965
681.7000	77.3078
681.6000	77.0654
681.5000	76.8654
681.4000	76.6774
681.3000	76.4538
681.2000	76.2391
681.1000	76.0111
681.0000	75.8285
680.9000	75.6426
680.8000	75.4213
680.7000	75.2222
680.6000	75.0105
680.5000	74.7453
680.4000	74.5502
680.3000	74.3337
680.2000	74.1405
680.1000	73.9023
680.0000	73.7029
679.9000	73.5083
679.8000	73.2926
679.7000	73.0867
679.6000	72.8982
679.5000	72.6486
679.4000	72.4667
679.3000	72.3117
679.2000	72.1734
679.1000	72.0419
679.0000	71.8898
678.9000	71.735
678.8000	71.6112
678.7000	71.5164
678.6000	71.3615
678.5000	71.2753
678.4000	71.1485
678.3000	71.075
678.2000	70.9877
678.1000	70.9193
678.0000	70.8827
677.9000	70.8557
677.8000	70.8144
677.7000	70.7218
677.6000	70.6459
677.5000	70.5906
677.4000	70.5582
677.3000	70.5589
677.2000	70.5417
677.1000	70.5095
677.0000	70.5432
676.9000	70.5617
676.8000	70.5957
676.7000	70.6212
676.6000	70.6785
676.5000	70.7444
676.4000	70.793
676.3000	70.8773
676.2000	70.963
676.1000	71.1214
676.0000	71.2221
675.9000	71.2943
675.8000	71.4388
675.7000	71.5173
675.6000	71.607
675.5000	71.7539
675.4000	71.8798
675.3000	72.0098
675.2000	72.2041
675.1000	72.3807
675.0000	72.5329
674.9000	72.7199
674.8000	72.9309
674.7000	73.1018
674.6000	73.2724
674.5000	73.4154
674.4000	73.6029
674.3000	73.8117
674.2000	74.024
674.1000	74.2849
674.0000	74.558
673.9000	74.7978
673.8000	75.0564
673.7000	75.3031
673.6000	75.5153
673.5000	75.7181
673.4000	75.9533
673.3000	76.1624
673.2000	76.3623
673.1000	76.5965
673.0000	76.8806
672.9000	77.1405
672.8000	77.4184
672.7000	77.6803
672.6000	77.9476
672.5000	78.1629
672.4000	78.3793
672.3000	78.5703
672.2000	78.78
672.1000	78.9781
672.0000	79.1885
671.9000	79.4018
671.8000	79.5985
671.7000	79.7904
671.6000	79.9943
671.5000	80.1789
671.4000	80.3455
671.3000	80.5138
671.2000	80.6801
671.1000	80.841
671.0000	80.9301
670.9000	81.0757
670.8000	81.2249
670.7000	81.4149
670.6000	81.5231
670.5000	81.6451
670.4000	81.7914
670.3000	81.9436
670.2000	82.056
670.1000	82.1109
670.0000	82.1694
669.9000	82.2798
669.8000	82.3283
669.7000	82.398
669.6000	82.4567
669.5000	82.4687
669.4000	82.5002
669.3000	82.5412
669.2000	82.5214
669.1000	82.4685
669.0000	82.5008
668.9000	82.4659
668.8000	82.3818
668.7000	82.2551
668.6000	82.1484
668.5000	82.0496
668.4000	81.9611
668.3000	81.8191
668.2000	81.7102
668.1000	81.5771
668.0000	81.4385
667.9000	81.3001
667.8000	81.1211
667.7000	80.9568
667.6000	80.7782
667.5000	80.6146
667.4000	80.3648
667.3000	80.1899
667.2000	80.0068
667.1000	79.8291
667.0000	79.6633
666.9000	79.4917
666.8000	79.2554
666.7000	79.0477
666.6000	78.8012
666.5000	78.5455
666.4000	78.3098
666.3000	78.0815
666.2000	77.8738
666.1000	77.631
666.0000	77.3796
665.9000	77.1632
665.8000	76.969
665.7000	76.6836
665.6000	76.4187
665.5000	76.2109
665.4000	75.9733
665.3000	75.7643
665.2000	75.5149
665.1000	75.2268
665.0000	74.9927
664.9000	74.7968
664.8000	74.5231
664.7000	74.2876
664.6000	74.0691
664.5000	73.8488
664.4000	73.6691
664.3000	73.4511
664.2000	73.2084
664.1000	73.0351
664.0000	72.849
663.9000	72.6119
663.8000	72.4377
663.7000	72.2382
663.6000	72.0932
663.5000	71.9928
663.4000	71.8557
663.3000	71.6954
663.2000	71.6089
663.1000	71.5086
663.0000	71.3648
662.9000	71.2673
662.8000	71.1422
662.7000	71.0503
662.6000	70.9859
662.5000	70.9246
662.4000	70.8903
662.3000	70.8934
662.2000	70.8091
662.1000	70.7902
662.0000	70.7692
661.9000	70.7399
661.8000	70.7318
661.7000	70.7677
661.6000	70.8007
661.5000	70.7995
661.4000	70.8254
661.3000	70.8387
661.2000	70.9081
661.1000	70.9468
661.0000	71.0365
660.9000	71.1088
660.8000	71.1596
660.7000	71.2493
660.6000	71.3847
660.5000	71.4822
660.4000	71.6137
660.3000	71.7642
660.2000	71.9046
660.1000	72.0163
660.0000	72.1323
659.9000	72.3117
659.8000	72.5327
659.7000	72.7095
659.6000	72.8806
659.5000	73.0781
659.4000	73.2415
659.3000	73.4529
659.2000	73.7376
659.1000	73.9244
659.0000	74.145
658.9000	74.3975
658.8000	74.619
658.7000	74.8244
658.6000	75.0621
658.5000	75.3241
658.4000	75.6043
658.3000	75.8828
658.2000	76.1255
658.1000	76.3738
658.0000	76.6108
657.9000	76.8639
657.8000	77.1453
657.7000	77.4321
657.6000	77.6591
657.5000	77.9151
657.4000	78.146
657.3000	78.3826
657.2000	78.6162
657.1000	78.8997
657.0000	79.1424
656.9000	79.3565
656.8000	79.5029
656.7000	79.7114
656.6000	79.9136
656.5000	80.1742
656.4000	80.4166
656.3000	80.6547
656.2000	80.8508
656.1000	80.9882
656.0000	81.155
655.9000	81.3743
655.8000	81.5248
655.7000	81.6484
655.6000	81.8158
655.5000	81.9331
655.4000	82.0545
655.3000	82.1802
655.2000	82.3648
655.1000	82.446
655.0000	82.5337
654.9000	82.5263
654.8000	82.5873
654.7000	82.5816
654.6000	82.6008
654.5000	82.6749
654.4000	82.6534
654.3000	82.562
654.2000	82.5486
654.1000	82.535
654.0000	82.5024
653.9000	82.4673
653.8000	82.3677
653.7000	82.2921
653.6000	82.1662
653.5000	82.1045
653.4000	81.9863
653.3000	81.8826
653.2000	81.7087
653.1000	81.6231
653.0000	81.4555
652.9000	81.2723
652.8000	81.1481
652.7000	80.9762
652.6000	80.8287
652.5000	80.661
652.4000	80.4152
652.3000	80.2009
652.2000	80.0406
652.1000	79.8281
652.0000	79.6173
651.9000	79.3376
651.8000	79.1036
651.7000	78.8735
651.6000	78.647
651.5000	78.3764
651.4000	78.1556
651.3000	77.8998
651.2000	77.6313
651.1000	77.4371
651.0000	77.1729
650.9000	76.9554
650.8000	76.7486
650.7000	76.4887
650.6000	76.1783
650.5000	75.8796
650.4000	75.6711
650.3000	75.4765
650.2000	75.2488
650.1000	75.0028
650.0000	74.7694
649.9000	74.5651
649.8000	74.3469
649.7000	74.1197
649.6000	73.9188
649.5000	73.6911
649.4000	73.4969
649.3000	73.2651
649.2000	73.1107
649.1000	72.9381
649.0000	72.8493
648.9000	72.73
648.8000	72.5771
648.7000	72.4418
648.6000	72.285
648.5000	72.2041
648.4000	72.0968
648.3000	71.9671
648.2000	71.8687
648.1000	71.8076
648.0000	71.7135
647.9000	71.6562
647.8000	71.6494
647.7000	71.6041
647.6000	71.5425
647.5000	71.517
647.4000	71.469
647.3000	71.502
647.2000	71.4971
647.1000	71.4643
647.0000	71.5018
646.9000	71.4987
646.8000	71.5538
646.7000	71.6201
646.6000	71.6395
646.5000	71.6744
646.4000	71.764
646.3000	71.8671
646.2000	71.9347
646.1000	72.0405
646.0000	72.142
645.9000	72.2544
645.8000	72.3868
645.7000	72.4789
645.6000	72.6157
645.5000	72.7906
645.4000	72.9659
645.3000	73.1515
645.2000	73.3137
645.1000	73.4896
645.0000	73.7264
644.9000	74.001
644.8000	74.2023
644.7000	74.3981
644.6000	74.6346
644.5000	74.8606
644.4000	75.0961
644.3000	75.3064
644.2000	75.5427
644.1000	75.796
644.0000	76.0229
643.9000	76.2742
643.8000	76.5435
643.7000	76.8203
643.6000	77.115
643.5000	77.3969
643.4000	77.6762
643.3000	77.9029
643.2000	78.1951
643.1000	78.4823
643.0000	78.7232
642.9000	78.9873
642.8000	79.2555
642.7000	79.5129
642.6000	79.7478
642.5000	80.0474
642.4000	80.3347
642.3000	80.5491
642.2000	80.8258
642.1000	81.0104
642.0000	81.187
641.9000	81.3369
641.8000	81.5456
641.7000	81.7304
641.6000	81.8598
641.5000	82.0241
641.4000	82.1538
641.3000	82.2753
641.2000	82.4132
641.1000	82.5568
641.0000	82.6464
640.9000	82.6899
640.8000	82.7339
640.7000	82.8174
640.6000	82.7888
640.5000	82.8625
640.4000	82.8878
640.3000	82.9502
640.2000	82.9343
640.1000	82.9284
640.0000	82.924
639.9000	82.8624
639.8000	82.8056
639.7000	82.7608
639.6000	82.7135
639.5000	82.6177
639.4000	82.5529
639.3000	82.4752
639.2000	82.3726
639.1000	82.24
639.0000	82.1006
638.9000	81.9683
638.8000	81.8691
638.7000	81.6861
638.6000	81.505
638.5000	81.2628
638.4000	81.0584
638.3000	80.8801
638.2000	80.7262
638.1000	80.5042
638.0000	80.2526
637.9000	80.0496
637.8000	79.8196
637.7000	79.5831
637.6000	79.3675
637.5000	79.1898
637.4000	78.9277
637.3000	78.696
637.2000	78.4218
637.1000	78.1381
637.0000	77.8404
636.9000	77.6354
636.8000	77.3929
636.7000	77.1141
636.6000	76.8412
636.5000	76.6357
636.4000	76.3543
636.3000	76.1161
636.2000	75.8893
636.1000	75.6272
636.0000	75.3547
635.9000	75.1024
635.8000	74.9234
635.7000	74.6789
635.6000	74.4581
635.5000	74.3155
635.4000	74.2243
635.3000	74.041
635.2000	73.8802
635.1000	73.7099
635.0000	73.5461
634.9000	73.3695
634.8000	73.2392
634.7000	73.1058
634.6000	72.9406
634.5000	72.8452
634.4000	72.7447
634.3000	72.6348
634.2000	72.5239
634.1000	72.4755
634.0000	72.4265
633.9000	72.3503
633.8000	72.2767
633.7000	72.2237
633.6000	72.1606
633.5000	72.1812
633.4000	72.1647
633.3000	72.1667
633.2000	72.2238
633.1000	72.2583
633.0000	72.3479
632.9000	72.3876
632.8000	72.4384
632.7000	72.4971
632.6000	72.5723
632.5000	72.6092
632.4000	72.6747
632.3000	72.7873
632.2000	72.8733
632.1000	73.0106
632.0000	73.1984
631.9000	73.3285
631.8000	73.4924
631.7000	73.6268
631.6000	73.7591
631.5000	73.9251
631.4000	74.0891
631.3000	74.2688
631.2000	74.4849
631.1000	74.6865
631.0000	74.8914
630.9000	75.1249
630.8000	75.3795
630.7000	75.6133
630.6000	75.8551
630.5000	76.0942
630.4000	76.2911
630.3000	76.5174
630.2000	76.7658
630.1000	77.0714
630.0000	77.3525
629.9000	77.6573
629.8000	77.9501
629.7000	78.2127
629.6000	78.4733
629.5000	78.7847
629.4000	79.0922
629.3000	79.3602
629.2000	79.5958
629.1000	79.8247
629.0000	80.1035
628.9000	80.3572
628.8000	80.6285
628.7000	80.8814
628.6000	81.1292
628.5000	81.343
628.4000	81.5503
628.3000	81.7064
628.2000	81.8622
628.1000	82.0612
628.0000	82.2542
627.9000	82.3697
627.8000	82.5007
627.7000	82.6241
627.6000	82.7376
627.5000	82.9201
627.4000	82.9673
627.3000	83.0627
627.2000	83.1598
627.1000	83.2121
627.0000	83.3136
626.9000	83.3251
626.8000	83.3602
626.7000	83.4053
626.6000	83.4091
626.5000	83.4208
626.4000	83.3907
626.3000	83.3649
626.2000	83.3458
626.1000	83.2852
626.0000	83.2321
625.9000	83.1007
625.8000	83.0367
625.7000	82.9026
625.6000	82.7954
625.5000	82.6513
625.4000	82.4784
625.3000	82.327
625.2000	82.1535
625.1000	81.9949
625.0000	81.7963
624.9000	81.5729
624.8000	81.3667
624.7000	81.1362
624.6000	80.9256
624.5000	80.7484
624.4000	80.5219
624.3000	80.2664
624.2000	80.0242
624.1000	79.8179
624.0000	79.5505
623.9000	79.316
623.8000	79.0447
623.7000	78.7933
623.6000	78.512
623.5000	78.2096
623.4000	77.9645
623.3000	77.6985
623.2000	77.4543
623.1000	77.1794
623.0000	76.9145
622.9000	76.6537
622.8000	76.3908
622.7000	76.1549
622.6000	75.8931
622.5000	75.6398
622.4000	75.41
622.3000	75.1975
622.2000	74.9914
622.1000	74.8201
622.0000	74.6767
621.9000	74.5261
621.8000	74.3385
621.7000	74.1732
621.6000	74.0063
621.5000	73.884
621.4000	73.7485
621.3000	73.5872
621.2000	73.497
621.1000	73.4074
621.0000	73.3423
620.9000	73.2494
620.8000	73.1526
620.7000	73.0962
620.6000	73.0182
620.5000	72.9674
620.4000	72.9406
620.3000	72.8668
620.2000	72.8888
620.1000	72.9185
620.0000	72.9231
619.9000	72.9469
619.8000	72.9531
619.7000	73.0339
619.6000	73.0612
619.5000	73.1549
619.4000	73.2351
619.3000	73.3236
619.2000	73.4094
619.1000	73.499
619.0000	73.6493
618.9000	73.747
618.8000	73.8633
618.7000	74.016
618.6000	74.1447
618.5000	74.2652
618.4000	74.4251
618.3000	74.6232
618.2000	74.8115
618.1000	74.9732
618.0000	75.1989
617.9000	75.3898
617.8000	75.6062
617.7000	75.8528
617.6000	76.0487
617.5000	76.3021
617.4000	76.5396
617.3000	76.8171
617.2000	77.0571
617.1000	77.327
617.0000	77.593
616.9000	77.8954
616.8000	78.156
616.7000	78.4198
616.6000	78.7185
616.5000	79.0154
616.4000	79.2846
616.3000	79.5485
616.2000	79.7895
616.1000	80.0451
616.0000	80.3579
615.9000	80.5704
615.8000	80.7853
615.7000	80.9985
615.6000	81.2505
615.5000	81.4957
615.4000	81.7295
615.3000	81.9171
615.2000	82.1349
615.1000	82.32
615.0000	82.5179
614.9000	82.677
614.8000	82.8735
614.7000	82.9772
614.6000	83.1464
614.5000	83.2314
614.4000	83.4066
614.3000	83.5678
614.2000	83.6635
614.1000	83.739
614.0000	83.8009
613.9000	83.7979
613.8000	83.7796
613.7000	83.8064
613.6000	83.8016
613.5000	83.7061
613.4000	83.6633
613.3000	83.6044
613.2000	83.5476
613.1000	83.5185
613.0000	83.3715
612.9000	83.3053
612.8000	83.1091
612.7000	82.9076
612.6000	82.737
612.5000	82.5889
612.4000	82.3896
612.3000	82.2147
612.2000	82.0729
612.1000	81.818
612.0000	81.6251
611.9000	81.5057
611.8000	81.286
611.7000	81.0837
611.6000	80.8075
611.5000	80.5485
611.4000	80.3443
611.3000	80.0996
611.2000	79.8318
611.1000	79.5648
611.0000	79.3151
610.9000	79.0477
610.8000	78.8182
610.7000	78.5322
610.6000	78.2423
610.5000	77.9866
610.4000	77.6682
610.3000	77.3452
610.2000	77.045
610.1000	76.7731
610.0000	76.4907
609.9000	76.2317
609.8000	75.9481
609.7000	75.7232
609.6000	75.5225
609.5000	75.3377
609.4000	75.1504
609.3000	74.9492
609.2000	74.7168
609.1000	74.6167
609.0000	74.4577
608.9000	74.3278
608.8000	74.2083
608.7000	74.104
608.6000	73.9839
608.5000	73.8536
608.4000	73.7476
608.3000	73.6832
608.2000	73.6321
608.1000	73.5264
608.0000	73.4248
607.9000	73.3715
607.8000	73.347
607.7000	73.3109
607.6000	73.2962
607.5000	73.2325
607.4000	73.2505
607.3000	73.2603
607.2000	73.2818
607.1000	73.3538
607.0000	73.3904
606.9000	73.4849
606.8000	73.5715
606.7000	73.6725
606.6000	73.7473
606.5000	73.8787
606.4000	74.0266
606.3000	74.2017
606.2000	74.3078
606.1000	74.501
606.0000	74.6533
605.9000	74.8964
605.8000	75.0515
605.7000	75.2764
605.6000	75.54
605.5000	75.7283
605.4000	75.9666
605.3000	76.1719
605.2000	76.4165
605.1000	76.6915
605.0000	77.0034
604.9000	77.2039
604.8000	77.487
604.7000	77.7068
604.6000	77.9986
604.5000	78.2736
604.4000	78.5391
604.3000	78.7682
604.2000	79.0715
604.1000	79.3292
604.0000	79.559
603.9000	79.8415
603.8000	80.0885
603.7000	80.3584
603.6000	80.6238
603.5000	80.8095
603.4000	81.0315
603.3000	81.3381
603.2000	81.6183
603.1000	81.8692
603.0000	82.0629
602.9000	82.2338
602.8000	82.4655
602.7000	82.6991
602.6000	82.843
602.5000	83.0123
602.4000	83.1735
602.3000	83.2861
602.2000	83.4404
602.1000	83.5571
602.0000	83.6687
601.9000	83.723
601.8000	83.7612
601.7000	83.7711
601.6000	83.704
601.5000	83.7066
601.4000	83.7513
601.3000	83.7392
601.2000	83.7307
601.1000	83.6389
601.0000	83.6154
600.9000	83.5453
600.8000	83.4108
600.7000	83.2978
600.6000	83.1683
600.5000	83.0022
600.4000	82.8239
600.3000	82.6906
600.2000	82.5203
600.1000	82.3564
600.0000	82.2396
599.9000	82.053
599.8000	81.8221
599.7000	81.6003
599.6000	81.3451
599.5000	81.1014
599.4000	80.8055
599.3000	80.5447
599.2000	80.257
599.1000	79.9573
599.0000	79.6735
598.9000	79.4003
598.8000	79.1634
598.7000	78.9107
598.6000	78.678
598.5000	78.3845
598.4000	78.1055
598.3000	77.8144
598.2000	77.557
598.1000	77.2201
598.0000	76.9992
597.9000	76.72
597.8000	76.4596
597.7000	76.2749
597.6000	76.0476
597.5000	75.8384
597.4000	75.6226
597.3000	75.4113
597.2000	75.1735
597.1000	74.9893
597.0000	74.7815
596.9000	74.6024
596.8000	74.4213
596.7000	74.2622
596.6000	74.1259
596.5000	74.052
596.4000	73.9338
596.3000	73.8174
596.2000	73.7458
596.1000	73.6108
596.0000	73.5199
595.9000	73.5039
595.8000	73.4184
595.7000	73.3806
595.6000	73.4384
595.5000	73.4164
595.4000	73.4438
595.3000	73.4597
595.2000	73.5321
595.1000	73.6197
595.0000	73.7476
594.9000	73.8155
594.8000	73.9053
594.7000	74.0471
594.6000	74.164
594.5000	74.3405
594.4000	74.5148
594.3000	74.6678
594.2000	74.855
594.1000	75.0699
594.0000	75.2426
593.9000	75.4368
593.8000	75.6951
593.7000	75.9383
593.6000	76.1128
593.5000	76.3352
593.4000	76.5386
593.3000	76.8104
593.2000	77.0411
593.1000	77.3173
593.0000	77.5642
592.9000	77.8461
592.8000	78.077
592.7000	78.3223
592.6000	78.6049
592.5000	78.885
592.4000	79.1515
592.3000	79.4545
592.2000	79.7142
592.1000	79.9749
592.0000	80.2975
591.9000	80.5528
591.8000	80.8099
591.7000	81.0534
591.6000	81.3023
591.5000	81.5383
591.4000	81.757
591.3000	81.9589
591.2000	82.1904
591.1000	82.4133
591.0000	82.6252
590.9000	82.775
590.8000	82.9164
590.7000	83.0498
590.6000	83.1407
590.5000	83.2388
590.4000	83.3554
590.3000	83.433
590.2000	83.4992
590.1000	83.5333
590.0000	83.5515
589.9000	83.5764
589.8000	83.5977
589.7000	83.567
589.6000	83.5637
589.5000	83.4875
589.4000	83.3946
589.3000	83.3056
589.2000	83.1876
589.1000	83.0766
589.0000	82.968
588.9000	82.8391
588.8000	82.6568
588.7000	82.4788
588.6000	82.3031
588.5000	82.1215
588.4000	81.9506
588.3000	81.7127
588.2000	81.5273
588.1000	81.3334
588.0000	81.1199
587.9000	80.8805
587.8000	80.6524
587.7000	80.3601
587.6000	80.1151
587.5000	79.8399
587.4000	79.559
587.3000	79.3041
587.2000	79.041
587.1000	78.7194
587.0000	78.4196
586.9000	78.1402
586.8000	77.8398
586.7000	77.5658
586.6000	77.2513
586.5000	76.9419
586.4000	76.662
586.3000	76.4119
586.2000	76.1473
586.1000	75.9434
586.0000	75.7074
585.9000	75.4539
585.8000	75.23
585.7000	74.9954
585.6000	74.7614
585.5000	74.5811
585.4000	74.4102
585.3000	74.226
585.2000	74.1077
585.1000	74.0023
585.0000	73.8787
584.9000	73.7665
584.8000	73.6717
584.7000	73.533
584.6000	73.4606
584.5000	73.3516
584.4000	73.3158
584.3000	73.3111
584.2000	73.2943
584.1000	73.2959
584.0000	73.3334
583.9000	73.3908
583.8000	73.3912
583.7000	73.4526
583.6000	73.4936
583.5000	73.5661
583.4000	73.6776
583.3000	73.7933
583.2000	73.9139
583.1000	74.0858
583.0000	74.2641
582.9000	74.4757
582.8000	74.6485
582.7000	74.8307
582.6000	75.0642
582.5000	75.3061
582.4000	75.535
582.3000	75.7717
582.2000	76.0473
582.1000	76.321
582.0000	76.6229
581.9000	76.868
581.8000	77.1037
581.7000	77.3684
581.6000	77.634
581.5000	77.9079
581.4000	78.1426
581.3000	78.4033
581.2000	78.6759
581.1000	78.9854
581.0000	79.2298
580.9000	79.4734
580.8000	79.7471
580.7000	80.0344
580.6000	80.3202
580.5000	80.5801
580.4000	80.8081
580.3000	81.0265
580.2000	81.2727
580.1000	81.5144
580.0000	81.6955
579.9000	81.9134
579.8000	82.0922
579.7000	82.2361
579.6000	82.4147
579.5000	82.548
579.4000	82.6853
579.3000	82.8359
579.2000	82.9008
579.1000	83.0017
579.0000	83.1084
578.9000	83.1329
578.8000	83.201
578.7000	83.2407
578.6000	83.2808
578.5000	83.2401
578.4000	83.2203
578.3000	83.1762
578.2000	83.1476
578.1000	83.112
578.0000	83.0177
577.9000	82.9026
577.8000	82.7691
577.7000	82.5914
577.6000	82.4367
577.5000	82.2109
577.4000	81.9218
577.3000	81.7508
577.2000	81.4884
577.1000	81.2513
577.0000	81.0081
576.9000	80.8186
576.8000	80.5688
576.7000	80.267
576.6000	80.0405
576.5000	79.7795
576.4000	79.4947
576.3000	79.1991
576.2000	78.8891
576.1000	78.6079
576.0000	78.2725
575.9000	77.997
575.8000	77.7195
575.7000	77.4291
575.6000	77.1024
575.5000	76.8366
575.4000	76.5425
575.3000	76.2344
575.2000	75.971
575.1000	75.7617
575.0000	75.4618
574.9000	75.159
574.8000	74.8833
574.7000	74.6616
574.6000	74.4746
574.5000	74.2603
574.4000	74.1045
574.3000	73.9585
574.2000	73.8124
574.1000	73.6428
574.0000	73.5267
573.9000	73.414
573.8000	73.2767
573.7000	73.1491
573.6000	73.0816
573.5000	72.9492
573.4000	72.86
573.3000	72.8396
573.2000	72.8451
573.1000	72.7881
573.0000	72.8141
572.9000	72.8425
572.8000	72.8514
572.7000	72.9071
572.6000	72.9803
572.5000	73.0564
572.4000	73.1817
572.3000	73.2802
572.2000	73.4213
572.1000	73.6037
572.0000	73.7563
571.9000	73.9757
571.8000	74.2029
571.7000	74.4017
571.6000	74.6277
571.5000	74.9179
571.4000	75.1543
571.3000	75.3869
571.2000	75.6636
571.1000	75.9023
571.0000	76.145
570.9000	76.4468
570.8000	76.725
570.7000	77.0086
570.6000	77.3148
570.5000	77.588
570.4000	77.8943
570.3000	78.1788
570.2000	78.4456
570.1000	78.787
570.0000	79.0893
569.9000	79.3453
569.8000	79.6071
569.7000	79.9136
569.6000	80.2384
569.5000	80.4868
569.4000	80.786
569.3000	81.001
569.2000	81.2415
569.1000	81.4509
569.0000	81.6484
568.9000	81.8593
568.8000	82.0231
568.7000	82.1814
568.6000	82.3169
568.5000	82.3964
568.4000	82.5129
568.3000	82.6426
568.2000	82.6936
568.1000	82.7068
568.0000	82.706
567.9000	82.7378
567.8000	82.6982
567.7000	82.684
567.6000	82.616
567.5000	82.5756
567.4000	82.4844
567.3000	82.3987
567.2000	82.27
567.1000	82.1149
567.0000	82.0293
566.9000	81.8533
566.8000	81.6347
566.7000	81.3925
566.6000	81.166
566.5000	80.9754
566.4000	80.699
566.3000	80.4582
566.2000	80.201
566.1000	79.9561
566.0000	79.6977
565.9000	79.4057
565.8000	79.0942
565.7000	78.7626
565.6000	78.4554
565.5000	78.1631
565.4000	77.8285
565.3000	77.5139
565.2000	77.1864
565.1000	76.8759
565.0000	76.6257
564.9000	76.3028
564.8000	76.0216
564.7000	75.7077
564.6000	75.4089
564.5000	75.1014
564.4000	74.8506
564.3000	74.5847
564.2000	74.325
564.1000	74.0851
564.0000	73.8358
563.9000	73.6082
563.8000	73.3964
563.7000	73.2405
563.6000	73.0749
563.5000	72.9303
563.4000	72.7641
563.3000	72.645
563.2000	72.5531
563.1000	72.4693
563.0000	72.4029
562.9000	72.3243
562.8000	72.2202
562.7000	72.1684
562.6000	72.1702
562.5000	72.1731
562.4000	72.2706
562.3000	72.3206
562.2000	72.3703
562.1000	72.412
562.0000	72.5176
561.9000	72.6221
561.8000	72.7319
561.7000	72.8957
561.6000	73.0417
561.5000	73.1943
561.4000	73.3628
561.3000	73.574
561.2000	73.8123
561.1000	74.0343
561.0000	74.2837
560.9000	74.5543
560.8000	74.7752
560.7000	75.0896
560.6000	75.3932
560.5000	75.6882
560.4000	75.9637
560.3000	76.247
560.2000	76.5421
560.1000	76.8293
560.0000	77.1462
559.9000	77.4205
559.8000	77.7281
559.7000	78.0458
559.6000	78.3356
559.5000	78.6669
559.4000	78.9418
559.3000	79.2618
559.2000	79.524
559.1000	79.7774
559.0000	80.0276
558.9000	80.2784
558.8000	80.5378
558.7000	80.7782
558.6000	80.9893
558.5000	81.1899
558.4000	81.3497
558.3000	81.5387
558.2000	81.6985
558.1000	81.8322
558.0000	81.9594
557.9000	82.0454
557.8000	82.1193
557.7000	82.097
557.6000	82.1386
557.5000	82.1198
557.4000	82.1049
557.3000	82.0579
557.2000	81.9431
557.1000	81.8853
557.0000	81.7983
556.9000	81.6425
556.8000	81.4896
556.7000	81.3986
556.6000	81.2274
556.5000	80.958
556.4000	80.7637
556.3000	80.5144
556.2000	80.2691
556.1000	80.0149
556.0000	79.7354
555.9000	79.4482
555.8000	79.1265
555.7000	78.7834
555.6000	78.5053
555.5000	78.1591
555.4000	77.8353
555.3000	77.5078
555.2000	77.162
555.1000	76.7442
555.0000	76.4226
554.9000	76.1198
554.8000	75.7694
554.7000	75.4124
554.6000	75.1244
554.5000	74.796
554.4000	74.4477
554.3000	74.1412
554.2000	73.8283
554.1000	73.5594
554.0000	73.2906
553.9000	72.9917
553.8000	72.7178
553.7000	72.4733
553.6000	72.3072
553.5000	72.1464
553.4000	71.9458
553.3000	71.8035
553.2000	71.6517
553.1000	71.5566
553.0000	71.4416
552.9000	71.371
552.8000	71.3161
552.7000	71.2556
552.6000	71.2555
552.5000	71.277
552.4000	71.2889
552.3000	71.3678
552.2000	71.4283
552.1000	71.5018
552.0000	71.5535
551.9000	71.6383
551.8000	71.7922
551.7000	71.9347
551.6000	72.1137
551.5000	72.3069
551.4000	72.5037
551.3000	72.7153
551.2000	72.9668
551.1000	73.2075
551.0000	73.4178
550.9000	73.7016
550.8000	73.974
550.7000	74.2509
550.6000	74.5807
550.5000	74.8925
550.4000	75.2301
550.3000	75.5793
550.2000	75.876
550.1000	76.2109
550.0000	76.5187
549.9000	76.8496
549.8000	77.1809
549.7000	77.5195
549.6000	77.8304
549.5000	78.1722
549.4000	78.5202
549.3000	78.806
549.2000	79.1122
549.1000	79.4183
549.0000	79.6417
548.9000	79.9079
548.8000	80.1405
548.7000	80.3524
548.6000	80.5459
548.5000	80.7281
548.4000	80.9046
548.3000	81.0305
548.2000	81.1306
548.1000	81.2646
548.0000	81.3343
547.9000	81.3948
547.8000	81.3851
547.7000	81.4003
547.6000	81.3804
547.5000	81.3335
547.4000	81.2904
547.3000	81.2056
547.2000	81.0687
547.1000	80.9412
547.0000	80.7844
546.9000	80.5983
546.8000	80.4078
546.7000	80.2029
546.6000	79.9706
546.5000	79.6597
546.4000	79.4029
546.3000	79.0919
546.2000	78.8809
546.1000	78.5754
546.0000	78.2792
545.9000	77.9194
545.8000	77.5819
545.7000	77.2721
545.6000	76.9519
545.5000	76.6
545.4000	76.2397
545.3000	75.8866
545.2000	75.5428
545.1000	75.2064
545.0000	74.8678
544.9000	74.5255
544.8000	74.181
544.7000	73.8605
544.6000	73.5209
544.5000	73.2189
544.4000	72.911
544.3000	72.6508
544.2000	72.3925
544.1000	72.115
544.0000	71.8701
543.9000	71.6439
543.8000	71.4758
543.7000	71.286
543.6000	71.0979
543.5000	70.9519
543.4000	70.8161
543.3000	70.7159
543.2000	70.6451
543.1000	70.6173
543.0000	70.5561
542.9000	70.5186
542.8000	70.4929
542.7000	70.4824
542.6000	70.5115
542.5000	70.5929
542.4000	70.6974
542.3000	70.7857
542.2000	70.895
542.1000	71.005
542.0000	71.1958
541.9000	71.3756
541.8000	71.6008
541.7000	71.8274
541.6000	72.0379
541.5000	72.2681
541.4000	72.5354
541.3000	72.8244
541.2000	73.1654
541.1000	73.4799
541.0000	73.8
540.9000	74.1348
540.8000	74.4802
540.7000	74.8311
540.6000	75.185
540.5000	75.5844
540.4000	75.9275
540.3000	76.2624
540.2000	76.6073
540.1000	76.9443
540.0000	77.2939
539.9000	77.6202
539.8000	77.9808
539.7000	78.2833
539.6000	78.5472
539.5000	78.8458
539.4000	79.1312
539.3000	79.3039
539.2000	79.5755
539.1000	79.8128
539.0000	80.02
538.9000	80.196
538.8000	80.3134
538.7000	80.4148
538.6000	80.4435
538.5000	80.5498
538.4000	80.6435
538.3000	80.6546
538.2000	80.633
538.1000	80.6374
538.0000	80.579
537.9000	80.5109
537.8000	80.4181
537.7000	80.354
537.6000	80.1706
537.5000	79.9506
537.4000	79.725
537.3000	79.5107
537.2000	79.3024
537.1000	79.052
537.0000	78.8512
536.9000	78.558
536.8000	78.2062
536.7000	77.924
536.6000	77.6324
536.5000	77.3115
536.4000	76.9717
536.3000	76.5987
536.2000	76.1978
536.1000	75.8094
536.0000	75.4337
535.9000	75.1212
535.8000	74.7747
535.7000	74.4506
535.6000	74.0949
535.5000	73.7303
535.4000	73.3952
535.3000	73.0663
535.2000	72.7469
535.1000	72.4307
535.0000	72.1197
534.9000	71.8007
534.8000	71.56
534.7000	71.3501
534.6000	71.1223
534.5000	70.8995
534.4000	70.6836
534.3000	70.5217
534.2000	70.3724
534.1000	70.2446
534.0000	70.1044
533.9000	70.0533
533.8000	69.9805
533.7000	69.9422
533.6000	69.9532
533.5000	69.9369
533.4000	69.9414
533.3000	70.016
533.2000	70.0734
533.1000	70.113
533.0000	70.276
532.9000	70.4652
532.8000	70.6388
532.7000	70.8056
532.6000	70.9837
532.5000	71.1502
532.4000	71.3752
532.3000	71.5978
532.2000	71.8299
532.1000	72.0964
532.0000	72.3574
531.9000	72.6799
531.8000	73.0224
531.7000	73.3183
531.6000	73.6896
531.5000	74.0911
531.4000	74.4286
531.3000	74.7343
531.2000	75.1069
531.1000	75.4563
531.0000	75.7988
530.9000	76.1794
530.8000	76.6
530.7000	77.0114
530.6000	77.4011
530.5000	77.6999
530.4000	78.0298
530.3000	78.3473
530.2000	78.6397
530.1000	78.9307
530.0000	79.121
529.9000	79.3389
529.8000	79.5519
529.7000	79.7508
529.6000	79.8941
529.5000	80.0033
529.4000	80.1632
529.3000	80.2057
529.2000	80.1993
529.1000	80.1946
529.0000	80.1586
528.9000	80.141
528.8000	80.1141
528.7000	80.0285
528.6000	79.8965
528.5000	79.7438
528.4000	79.5878
528.3000	79.3997
528.2000	79.1699
528.1000	78.9233
528.0000	78.6909
527.9000	78.4989
527.8000	78.217
527.7000	77.9627
527.6000	77.7017
527.5000	77.3668
527.4000	77.05
527.3000	76.7186
527.2000	76.3602
527.1000	75.9983
527.0000	75.6376
526.9000	75.2993
526.8000	74.9542
526.7000	74.6165
526.6000	74.2638
526.5000	73.9106
526.4000	73.5606
526.3000	73.1803
526.2000	72.8237
526.1000	72.4574
526.0000	72.08
525.9000	71.7678
525.8000	71.4557
525.7000	71.1935
525.6000	70.9612
525.5000	70.7074
525.4000	70.483
525.3000	70.2528
525.2000	70.0733
525.1000	69.9036
525.0000	69.802
524.9000	69.7468
524.8000	69.6518
524.7000	69.5475
524.6000	69.5153
524.5000	69.5423
524.4000	69.5713
524.3000	69.6084
524.2000	69.6974
524.1000	69.7674
524.0000	69.8655
523.9000	70.0189
523.8000	70.1846
523.7000	70.4306
523.6000	70.6513
523.5000	70.8424
523.4000	71.0562
523.3000	71.301
523.2000	71.6185
523.1000	71.9911
523.0000	72.3261
522.9000	72.635
522.8000	73.0097
522.7000	73.3845
522.6000	73.758
522.5000	74.1839
522.4000	74.5499
522.3000	74.9461
522.2000	75.3482
522.1000	75.6912
522.0000	76.0481
521.9000	76.4744
521.8000	76.8236
521.7000	77.1711
521.6000	77.5275
521.5000	77.8595
521.4000	78.1622
521.3000	78.5037
521.2000	78.7696
521.1000	79.029
521.0000	79.2348
520.9000	79.4142
520.8000	79.5877
520.7000	79.7253
520.6000	79.8261
520.5000	79.9113
520.4000	80.0252
520.3000	80.047
520.2000	80.0831
520.1000	80.0747
520.0000	79.9974
519.9000	79.8915
519.8000	79.7783
519.7000	79.7091
519.6000	79.4821
519.5000	79.2606
519.4000	78.9896
519.3000	78.7317
519.2000	78.4474
519.1000	78.2082
519.0000	77.9188
518.9000	77.5658
518.8000	77.2562
518.7000	76.8939
518.6000	76.58
518.5000	76.1755
518.4000	75.7854
518.3000	75.458
518.2000	75.0691
518.1000	74.6886
518.0000	74.2953
517.9000	73.9379
517.8000	73.6292
517.7000	73.287
517.6000	72.9828
517.5000	72.5886
517.4000	72.2886
517.3000	71.9332
517.2000	71.6014
517.1000	71.3107
517.0000	71.029
516.9000	70.8317
516.8000	70.6264
516.7000	70.3932
516.6000	70.2533
516.5000	70.0703
516.4000	69.9851
516.3000	69.8801
516.2000	69.7851
516.1000	69.7394
516.0000	69.6711
515.9000	69.6835
515.8000	69.6933
515.7000	69.8133
515.6000	69.8705
515.5000	69.9877
515.4000	70.0892
515.3000	70.2299
515.2000	70.3852
515.1000	70.5813
515.0000	70.7806
514.9000	71.0109
514.8000	71.2098
514.7000	71.4846
514.6000	71.8003
514.5000	72.0962
514.4000	72.415
514.3000	72.7722
514.2000	73.1227
514.1000	73.4757
514.0000	73.9071
513.9000	74.2811
513.8000	74.7163
513.7000	75.0975
513.6000	75.4601
513.5000	75.8725
513.4000	76.249
513.3000	76.6454
513.2000	77.0732
513.1000	77.4337
513.0000	77.748
512.9000	78.0711
512.8000	78.4185
512.7000	78.731
512.6000	78.9904
512.5000	79.2339
512.4000	79.4149
512.3000	79.5988
512.2000	79.7529
512.1000	79.8603
512.0000	80.0247
511.9000	80.0758
511.8000	80.1247
511.7000	80.1364
511.6000	80.0819
511.5000	80.0102
511.4000	79.9117
511.3000	79.7663
511.2000	79.5923
511.1000	79.4395
511.0000	79.2418
510.9000	78.9757
510.8000	78.7246
510.7000	78.4418
510.6000	78.1266
510.5000	77.8403
510.4000	77.4186
510.3000	77.0824
510.2000	76.6986
510.1000	76.3164
510.0000	75.9229
509.9000	75.5413
509.8000	75.2058
509.7000	74.795
509.6000	74.427
509.5000	73.9928
509.4000	73.6359
509.3000	73.2818
509.2000	72.9182
509.1000	72.5136
509.0000	72.1801
508.9000	71.8672
508.8000	71.6005
508.7000	71.3465
508.6000	71.1018
508.5000	70.8599
508.4000	70.628
508.3000	70.4621
508.2000	70.2343
508.1000	70.1678
508.0000	70.0802
507.9000	70.0223
507.8000	69.9341
507.7000	69.92
507.6000	69.9512
507.5000	70.0348
507.4000	70.0967
507.3000	70.1815
507.2000	70.3472
507.1000	70.4797
507.0000	70.6212
506.9000	70.8218
506.8000	71.0798
506.7000	71.3423
506.6000	71.6559
506.5000	71.9591
506.4000	72.2514
506.3000	72.5751
506.2000	73.0017
506.1000	73.3822
506.0000	73.776
505.9000	74.2006
505.8000	74.6737
505.7000	75.0994
505.6000	75.4812
505.5000	75.8862
505.4000	76.3251
505.3000	76.7182
505.2000	77.1197
505.1000	77.5325
505.0000	77.8823
504.9000	78.2105
504.8000	78.5501
504.7000	78.8367
504.6000	79.0487
504.5000	79.3168
504.4000	79.5848
504.3000	79.7579
504.2000	79.9366
504.1000	80.0714
504.0000	80.1745
503.9000	80.26
503.8000	80.3054
503.7000	80.3179
503.6000	80.2865
503.5000	80.1669
503.4000	80.0958
503.3000	79.9628
503.2000	79.817
503.1000	79.6752
503.0000	79.5036
502.9000	79.2492
502.8000	78.8968
502.7000	78.5842
502.6000	78.2052
502.5000	77.8765
502.4000	77.5497
502.3000	77.1497
502.2000	76.8126
502.1000	76.4743
502.0000	76.1067
501.9000	75.7517
501.8000	75.3856
501.7000	74.9814
501.6000	74.5983
501.5000	74.2555
501.4000	73.8699
501.3000	73.5261
501.2000	73.1952
501.1000	72.8927
501.0000	72.5807
500.9000	72.3031
500.8000	72.046
500.7000	71.8186
500.6000	71.5811
500.5000	71.3726
500.4000	71.1359
500.3000	70.9327
500.2000	70.8049
500.1000	70.7113
500.0000	70.6349
499.9000	70.5203
499.8000	70.5423
499.7000	70.5599
499.6000	70.6485
499.5000	70.7623
499.4000	70.8995
499.3000	70.9856
499.2000	71.1488
499.1000	71.3867
499.0000	71.6204
498.9000	71.85
498.8000	72.1805
498.7000	72.5085
498.6000	72.8405
498.5000	73.209
498.4000	73.568
498.3000	74.0058
498.2000	74.3538
498.1000	74.7508
498.0000	75.1394
497.9000	75.5393
497.8000	75.9749
497.7000	76.4115
497.6000	76.7977
497.5000	77.1861
497.4000	77.592
497.3000	77.9831
497.2000	78.3087
497.1000	78.662
497.0000	78.9684
496.9000	79.2898
496.8000	79.5848
496.7000	79.7689
496.6000	80.0121
496.5000	80.2292
496.4000	80.3986
496.3000	80.4911
496.2000	80.4972
496.1000	80.552
496.0000	80.538
495.9000	80.4835
495.8000	80.3953
495.7000	80.3325
495.6000	80.2183
495.5000	80.0386
495.4000	79.7864
495.3000	79.5506
495.2000	79.268
495.1000	79.0281
495.0000	78.7049
494.9000	78.3491
494.8000	77.9988
494.7000	77.6201
494.6000	77.2865
494.5000	76.8996
494.4000	76.5424
494.3000	76.1659
494.2000	75.7605
494.1000	75.3525
494.0000	74.9933
493.9000	74.6223
493.8000	74.3148
493.7000	73.9587
493.6000	73.5904
493.5000	73.2296
493.4000	72.9251
493.3000	72.6625
493.2000	72.3911
493.1000	72.1745
493.0000	71.9611
492.9000	71.7721
492.8000	71.5994
492.7000	71.4496
492.6000	71.3882
492.5000	71.3585
492.4000	71.3153
492.3000	71.3
492.2000	71.2711
492.1000	71.321
492.0000	71.4377
491.9000	71.5831
491.8000	71.6794
491.7000	71.8334
491.6000	72.0471
491.5000	72.33
491.4000	72.5758
491.3000	72.8407
491.2000	73.1564
491.1000	73.499
491.0000	73.8292
490.9000	74.1378
490.8000	74.542
490.7000	74.9515
490.6000	75.4019
490.5000	75.7793
490.4000	76.1928
490.3000	76.5985
490.2000	77.0707
490.1000	77.4842
490.0000	77.86
489.9000	78.1936
489.8000	78.5754
489.7000	78.9407
489.6000	79.2945
489.5000	79.61
489.4000	79.8828
489.3000	80.1214
489.2000	80.2845
489.1000	80.4668
489.0000	80.6045
488.9000	80.7236
488.8000	80.7854
488.7000	80.8157
488.6000	80.8055
488.5000	80.7624
488.4000	80.7534
488.3000	80.6047
488.2000	80.4293
488.1000	80.2605
488.0000	80.0295
487.9000	79.7821
487.8000	79.5152
487.7000	79.2311
487.6000	78.9384
487.5000	78.5564
487.4000	78.2022
487.3000	77.8348
487.2000	77.4353
487.1000	77.0752
487.0000	76.6809
486.9000	76.2596
486.8000	75.8087
486.7000	75.431
486.6000	75.0969
486.5000	74.7511
486.4000	74.3321
486.3000	73.9882
486.2000	73.672
486.1000	73.3902
486.0000	73.1061
485.9000	72.8885
485.8000	72.6524
485.7000	72.469
485.6000	72.3219
485.5000	72.1678
485.4000	72.0631
485.3000	72.0199
485.2000	71.9697
485.1000	71.9678
485.0000	71.9595
484.9000	71.9901
484.8000	72.1114
484.7000	72.1992
484.6000	72.3127
484.5000	72.4681
484.4000	72.652
484.3000	72.8586
484.2000	73.0709
484.1000	73.3205
484.0000	73.6203
483.9000	73.9185
483.8000	74.2212
483.7000	74.5657
483.6000	74.9557
483.5000	75.3353
483.4000	75.7202
483.3000	76.0918
483.2000	76.462
483.1000	76.8703
483.0000	77.2823
482.9000	77.6808
482.8000	78.0853
482.7000	78.4875
482.6000	78.853
482.5000	79.2258
482.4000	79.5499
482.3000	79.851
482.2000	80.1406
482.1000	80.3882
482.0000	80.5589
481.9000	80.7237
481.8000	80.8601
481.7000	80.9537
481.6000	81.0331
481.5000	81.0525
481.4000	81.0313
481.3000	80.9329
481.2000	80.8599
481.1000	80.6969
481.0000	80.5532
480.9000	80.3367
480.8000	80.1376
480.7000	79.8609
480.6000	79.5754
480.5000	79.197
480.4000	78.8449
480.3000	78.4373
480.2000	78.07
480.1000	77.6795
480.0000	77.229
479.9000	76.8359
479.8000	76.4211
479.7000	76.0668
479.6000	75.6432
479.5000	75.2128
479.4000	74.8348
479.3000	74.4516
479.2000	74.0541
479.1000	73.7184
479.0000	73.3854
478.9000	73.1504
478.8000	72.9176
478.7000	72.7348
478.6000	72.5449
478.5000	72.4206
478.4000	72.3314
478.3000	72.2394
478.2000	72.1692
478.1000	72.0476
478.0000	72.0574
477.9000	72.0567
477.8000	72.1266
477.7000	72.2908
477.6000	72.38
477.5000	72.5789
477.4000	72.7773
477.3000	72.9922
477.2000	73.2679
477.1000	73.5077
477.0000	73.8061
476.9000	74.0876
476.8000	74.4355
476.7000	74.7698
476.6000	75.1213
476.5000	75.5451
476.4000	75.9032
476.3000	76.3938
476.2000	76.753
476.1000	77.1271
476.0000	77.596
475.9000	77.962
475.8000	78.4131
475.7000	78.7616
475.6000	79.071
475.5000	79.4355
475.4000	79.7373
475.3000	80.0198
475.2000	80.2386
475.1000	80.4532
475.0000	80.6255
474.9000	80.7647
474.8000	80.8834
474.7000	80.9177
474.6000	80.9781
474.5000	80.8818
474.4000	80.7947
474.3000	80.6864
474.2000	80.4772
474.1000	80.2846
474.0000	80.0452
473.9000	79.798
473.8000	79.4591
473.7000	79.1316
473.6000	78.8235
473.5000	78.4836
473.4000	78.1405
473.3000	77.8063
473.2000	77.3739
473.1000	76.9654
473.0000	76.5418
472.9000	76.159
472.8000	75.7196
472.7000	75.329
472.6000	74.9251
472.5000	74.5832
472.4000	74.2865
472.3000	73.9172
472.2000	73.628
472.1000	73.3605
472.0000	73.1237
471.9000	72.871
471.8000	72.6532
471.7000	72.4612
471.6000	72.3199
471.5000	72.2178
471.4000	72.1912
471.3000	72.1745
471.2000	72.2542
471.1000	72.2749
471.0000	72.3706
470.9000	72.5052
470.8000	72.6087
470.7000	72.8245
470.6000	73.0917
470.5000	73.3773
470.4000	73.6309
470.3000	73.9936
470.2000	74.3332
470.1000	74.6754
470.0000	75.0534
469.9000	75.4305
469.8000	75.7934
469.7000	76.1947
469.6000	76.5499
469.5000	76.9881
469.4000	77.426
469.3000	77.7927
469.2000	78.1856
469.1000	78.5023
469.0000	78.8304
468.9000	79.0689
468.8000	79.3346
468.7000	79.6073
468.6000	79.8287
468.5000	79.9993
468.4000	80.1712
468.3000	80.2768
468.2000	80.328
468.1000	80.4082
468.0000	80.4217
467.9000	80.3791
467.8000	80.2454
467.7000	80.1222
467.6000	79.9575
467.5000	79.777
467.4000	79.4821
467.3000	79.2294
467.2000	78.9414
467.1000	78.508
467.0000	78.1446
466.9000	77.7594
466.8000	77.3586
466.7000	76.9785
466.6000	76.6045
466.5000	76.1056
466.4000	75.6252
466.3000	75.1863
466.2000	74.7917
466.1000	74.3585
466.0000	73.9377
465.9000	73.5625
465.8000	73.2024
465.7000	72.8667
465.6000	72.5829
465.5000	72.3355
465.4000	72.0782
465.3000	71.8981
465.2000	71.7303
465.1000	71.5999
465.0000	71.4582
464.9000	71.4157
464.8000	71.4254
464.7000	71.4635
464.6000	71.5344
464.5000	71.6857
464.4000	71.8739
464.3000	72.0249
464.2000	72.3159
464.1000	72.5774
464.0000	72.8417
463.9000	73.1784
463.8000	73.5613
463.7000	73.9266
463.6000	74.3572
463.5000	74.7519
463.4000	75.1391
463.3000	75.5752
463.2000	76.0041
463.1000	76.4012
463.0000	76.8088
462.9000	77.1567
462.8000	77.5364
462.7000	77.9146
462.6000	78.2078
462.5000	78.5117
462.4000	78.8109
462.3000	79.0534
462.2000	79.2326
462.1000	79.4068
462.0000	79.457
461.9000	79.5358
461.8000	79.6326
461.7000	79.635
461.6000	79.5622
461.5000	79.4402
461.4000	79.2621
461.3000	79.0784
461.2000	78.873
461.1000	78.6336
461.0000	78.3623
460.9000	78.0066
460.8000	77.669
460.7000	77.2942
460.6000	76.9194
460.5000	76.4604
460.4000	76.0452
460.3000	75.6015
460.2000	75.1419
460.1000	74.6929
460.0000	74.2388
459.9000	73.8584
459.8000	73.4609
459.7000	73.1586
459.6000	72.7817
459.5000	72.4279
459.4000	72.129
459.3000	71.8814
459.2000	71.5947
459.1000	71.3521
459.0000	71.1764
458.9000	71.0517
458.8000	70.9596
458.7000	70.8688
458.6000	70.8087
458.5000	70.8447
458.4000	70.9417
458.3000	71.0402
458.2000	71.2013
458.1000	71.3072
458.0000	71.515
457.9000	71.7886
457.8000	72.0488
457.7000	72.3608
457.6000	72.7172
457.5000	73.0859
457.4000	73.4957
457.3000	73.9022
457.2000	74.3407
457.1000	74.7735
457.0000	75.2441
456.9000	75.6777
456.8000	76.1385
456.7000	76.5141
456.6000	76.8732
456.5000	77.2317
456.4000	77.5718
456.3000	77.8886
456.2000	78.123
456.1000	78.3516
456.0000	78.5435
455.9000	78.731
455.8000	78.7812
455.7000	78.8547
455.6000	78.8364
455.5000	78.7612
455.4000	78.6334
455.3000	78.4528
455.2000	78.2527
455.1000	78.0248
455.0000	77.7279
454.9000	77.4149
454.8000	77.0205
454.7000	76.5925
454.6000	76.1956
454.5000	75.7222
454.4000	75.2698
454.3000	74.8108
454.2000	74.3111
454.1000	73.8623
454.0000	73.3774
453.9000	72.9396
453.8000	72.5606
453.7000	72.1341
453.6000	71.7315
453.5000	71.3958
453.4000	71.0766
453.3000	70.7847
453.2000	70.5153
453.1000	70.2886
453.0000	70.1028
452.9000	69.9655
452.8000	69.8244
452.7000	69.7976
452.6000	69.8131
452.5000	69.81
452.4000	69.9407
452.3000	70.1083
452.2000	70.2505
452.1000	70.4843
452.0000	70.7459
451.9000	71.0167
451.8000	71.3448
451.7000	71.7217
451.6000	72.1591
451.5000	72.5874
451.4000	73.0244
451.3000	73.5102
451.2000	73.992
451.1000	74.4155
451.0000	74.875
450.9000	75.3257
450.8000	75.723
450.7000	76.155
450.6000	76.4824
450.5000	76.8342
450.4000	77.1073
450.3000	77.3942
450.2000	77.6609
450.1000	77.7837
450.0000	77.9355
449.9000	78.0476
449.8000	78.0678
449.7000	78.0396
449.6000	77.9704
449.5000	77.8234
449.4000	77.6739
449.3000	77.4403
449.2000	77.1215
449.1000	76.8136
449.0000	76.511
448.9000	76.1013
448.8000	75.6409
448.7000	75.185
448.6000	74.6528
448.5000	74.1675
448.4000	73.6713
448.3000	73.1769
448.2000	72.7669
448.1000	72.3399
448.0000	71.8681
447.9000	71.4679
447.8000	70.9986
447.7000	70.5798
447.6000	70.3057
447.5000	69.9411
447.4000	69.6655
447.3000	69.4683
447.2000	69.3284
447.1000	69.1441
447.0000	69.118
446.9000	69.0529
446.8000	68.9934
446.7000	69.089
446.6000	69.1851
446.5000	69.273
446.4000	69.4971
446.3000	69.6844
446.2000	70.0459
446.1000	70.3959
446.0000	70.7101
445.9000	71.0805
445.8000	71.5262
445.7000	71.9246
445.6000	72.3721
445.5000	72.9378
445.4000	73.3149
445.3000	73.822
445.2000	74.3757
445.1000	74.7903
445.0000	75.1102
444.9000	75.5166
444.8000	75.8273
444.7000	76.1504
444.6000	76.3704
444.5000	76.6141
444.4000	76.8167
444.3000	76.9578
444.2000	77.0027
444.1000	77.0266
444.0000	76.9747
443.9000	76.8351
443.8000	76.737
443.7000	76.5306
443.6000	76.205
443.5000	75.8871
443.4000	75.6278
443.3000	75.2139
443.2000	74.7955
443.1000	74.3601
443.0000	73.8338
442.9000	73.3647
442.8000	72.925
442.7000	72.4701
442.6000	71.9398
442.5000	71.4217
442.4000	70.9251
442.3000	70.4063
442.2000	69.9878
442.1000	69.6054
442.0000	69.2555
441.9000	68.9085
441.8000	68.584
441.7000	68.3387
441.6000	68.1818
441.5000	68.0432
441.4000	68.0255
441.3000	68.0273
441.2000	67.9797
441.1000	68.063
441.0000	68.2245
440.9000	68.4241
440.8000	68.671
440.7000	69.0407
440.6000	69.392
440.5000	69.7355
440.4000	70.0942
440.3000	70.5154
440.2000	70.9565
440.1000	71.4157
440.0000	71.9462
439.9000	72.4485
439.8000	72.9099
439.7000	73.3563
439.6000	73.8924
439.5000	74.3032
439.4000	74.7401
439.3000	75.1632
439.2000	75.5634
439.1000	75.7777
439.0000	76.0383
438.9000	76.2188
438.8000	76.3938
438.7000	76.4557
438.6000	76.4891
438.5000	76.4774
438.4000	76.3265
438.3000	76.0799
438.2000	75.8438
438.1000	75.5502
438.0000	75.1842
437.9000	74.8117
437.8000	74.3646
437.7000	73.895
437.6000	73.4097
437.5000	72.938
437.4000	72.388
437.3000	71.8948
437.2000	71.4164
437.1000	70.969
437.0000	70.439
436.9000	69.9742
436.8000	69.5073
436.7000	69.1346
436.6000	68.7688
436.5000	68.4154
436.4000	68.1048
436.3000	67.8894
436.2000	67.7403
436.1000	67.6029
436.0000	67.4669
435.9000	67.4062
435.8000	67.4758
435.7000	67.5425
435.6000	67.6351
435.5000	67.8292
435.4000	68.0642
435.3000	68.3377
435.2000	68.7265
435.1000	69.1283
435.0000	69.5461
434.9000	69.9909
434.8000	70.3961
434.7000	70.8851
434.6000	71.3626
434.5000	71.8205
434.4000	72.3904
434.3000	72.911
434.2000	73.3642
434.1000	73.798
434.0000	74.2245
433.9000	74.514
433.8000	74.9034
433.7000	75.2076
433.6000	75.3689
433.5000	75.5207
433.4000	75.6172
433.3000	75.5874
433.2000	75.5725
433.1000	75.4082
433.0000	75.1816
432.9000	74.9607
432.8000	74.6228
432.7000	74.3209
432.6000	73.8803
432.5000	73.4942
432.4000	73.0028
432.3000	72.5135
432.2000	71.9807
432.1000	71.4571
432.0000	70.9139
431.9000	70.3582
431.8000	69.8323
431.7000	69.3683
431.6000	68.9003
431.5000	68.4822
431.4000	68.136
431.3000	67.8185
431.2000	67.4775
431.1000	67.2481
431.0000	67.0498
430.9000	66.9675
430.8000	66.9144
430.7000	66.905
430.6000	66.931
430.5000	67.0321
430.4000	67.2099
430.3000	67.458
430.2000	67.7211
430.1000	68.0603
430.0000	68.4086
429.9000	68.8287
429.8000	69.2433
429.7000	69.702
429.6000	70.2586
429.5000	70.7154
429.4000	71.2368
429.3000	71.7168
429.2000	72.1957
429.1000	72.7203
429.0000	73.1754
428.9000	73.6382
428.8000	73.9967
428.7000	74.3384
428.6000	74.6498
428.5000	74.8761
428.4000	75.0585
428.3000	75.1299
428.2000	75.1599
428.1000	75.1351
428.0000	75.004
427.9000	74.8004
427.8000	74.5687
427.7000	74.2049
427.6000	73.8779
427.5000	73.4803
427.4000	73.0569
427.3000	72.5776
427.2000	72.1029
427.1000	71.6359
427.0000	71.0752
426.9000	70.5861
426.8000	70.096
426.7000	69.6251
426.6000	69.1609
426.5000	68.6991
426.4000	68.3024
426.3000	67.9673
426.2000	67.6721
426.1000	67.4584
426.0000	67.2782
425.9000	67.1144
425.8000	66.9672
425.7000	66.9084
425.6000	67.0155
425.5000	67.0815
425.4000	67.3189
425.3000	67.5177
425.2000	67.8252
425.1000	68.1686
425.0000	68.5283
424.9000	68.9571
424.8000	69.4144
424.7000	69.9082
424.6000	70.3911
424.5000	70.8683
424.4000	71.3609
424.3000	71.8681
424.2000	72.4333
424.1000	72.9618
424.0000	73.3989
423.9000	73.8008
423.8000	74.13
423.7000	74.4558
423.6000	74.7131
423.5000	74.9043
423.4000	75.0687
423.3000	75.1709
423.2000	75.1306
423.1000	75.0664
423.0000	74.9699
422.9000	74.7727
422.8000	74.5177
422.7000	74.1549
422.6000	73.7708
422.5000	73.261
422.4000	72.7309
422.3000	72.2464
422.2000	71.7411
422.1000	71.2278
422.0000	70.6935
421.9000	70.1255
421.8000	69.6723
421.7000	69.14
421.6000	68.7355
421.5000	68.3036
421.4000	67.9001
421.3000	67.6452
421.2000	67.439
421.1000	67.3218
421.0000	67.2206
420.9000	67.2175
420.8000	67.3493
420.7000	67.4622
420.6000	67.647
420.5000	67.8968
420.4000	68.2082
420.3000	68.6111
420.2000	68.9416
420.1000	69.4617
420.0000	69.6265
419.9000	70.1934
419.8000	70.7706
419.7000	71.2818
419.6000	71.8795
419.5000	72.4473
419.4000	72.8959
419.3000	73.3743
419.2000	73.826
419.1000	74.2452
419.0000	74.5546
418.9000	74.7977
418.8000	74.9945
418.7000	75.1015
418.6000	75.3089
418.5000	75.2418
418.4000	75.0955
418.3000	74.9119
418.2000	74.6793
418.1000	74.3869
418.0000	73.9972
417.9000	73.6044
417.8000	73.2209
417.7000	72.6986
417.6000	72.1442
417.5000	71.6685
417.4000	71.2102
417.3000	70.6549
417.2000	70.2085
417.1000	69.6728
417.0000	69.1489
416.9000	68.7267
416.8000	68.438
416.7000	68.1017
416.6000	67.7826
416.5000	67.6164
416.4000	67.4917
416.3000	67.4787
416.2000	67.5318
416.1000	67.6278
416.0000	67.8531
415.9000	68.0804
415.8000	68.3117
415.7000	68.6797
415.6000	69.0227
415.5000	69.5305
415.4000	70.0944
415.3000	70.7117
415.2000	71.2277
415.1000	71.7392
415.0000	72.3304
414.9000	72.8391
414.8000	73.3345
414.7000	73.7296
414.6000	74.0756
414.5000	74.4996
414.4000	74.6715
414.3000	74.856
414.2000	75.1012
414.1000	75.2291
414.0000	75.2627
413.9000	75.2027
413.8000	74.9406
413.7000	74.6913
413.6000	74.3724
413.5000	74.0159
413.4000	73.5854
413.3000	73.0909
413.2000	72.6241
413.1000	72.1375
413.0000	71.6505
412.9000	71.1288
412.8000	70.7585
412.7000	70.2774
412.6000	69.8227
412.5000	69.3411
412.4000	69.0442
412.3000	68.6681
412.2000	68.4295
412.1000	68.241
412.0000	68.1558
411.9000	68.1224
411.8000	68.1461
411.7000	68.361
411.6000	68.5204
411.5000	68.7441
411.4000	69.0336
411.3000	69.3801
411.2000	69.7358
411.1000	70.2927
411.0000	70.7318
410.9000	71.2633
410.8000	71.7557
410.7000	72.2984
410.6000	72.7655
410.5000	73.1776
410.4000	73.631
410.3000	74.0887
410.2000	74.4942
410.1000	74.7618
410.0000	75.0075
409.9000	75.1795
409.8000	75.2262
409.7000	75.213
409.6000	75.1375
409.5000	74.8697
409.4000	74.6882
409.3000	74.5217
409.2000	74.2052
409.1000	73.8071
409.0000	73.3696
408.9000	72.8959
408.8000	72.4482
408.7000	71.9839
408.6000	71.4198
408.5000	70.8577
408.4000	70.3512
408.3000	69.9365
408.2000	69.5517
408.1000	69.2281
408.0000	68.975
407.9000	68.7757
407.8000	68.6105
407.7000	68.5288
407.6000	68.5903
407.5000	68.7247
407.4000	68.8902
407.3000	69.1686
407.2000	69.4686
407.1000	69.7818
407.0000	70.273
406.9000	70.806
406.8000	71.3299
406.7000	71.7604
406.6000	72.3518
406.5000	72.8694
406.4000	73.3644
406.3000	73.8342
406.2000	74.2329
406.1000	74.4961
406.0000	74.6918
405.9000	74.8015
405.8000	74.9612
405.7000	75.0229
405.6000	74.9958
405.5000	74.9247
405.4000	74.7221
405.3000	74.3431
405.2000	74.0092
405.1000	73.718
405.0000	73.2938
404.9000	72.806
404.8000	72.3284
404.7000	71.84
404.6000	71.3895
404.5000	70.9197
404.4000	70.4311
404.3000	70.1055
404.2000	69.7448
404.1000	69.4256
404.0000	69.1417
403.9000	68.914
403.8000	68.747
403.7000	68.7599
403.6000	68.7674
403.5000	68.8583
403.4000	68.928
403.3000	69.2116
403.2000	69.4806
403.1000	69.8264
403.0000	70.2216
402.9000	70.6849
402.8000	71.153
402.7000	71.6689
402.6000	72.1261
402.5000	72.5957
402.4000	73.0755
402.3000	73.5023
402.2000	73.9555
402.1000	74.3598
402.0000	74.6018
401.9000	74.6729
401.8000	74.8347
401.7000	74.7819
401.6000	74.7194
401.5000	74.495
401.4000	74.2544
401.3000	73.9144
401.2000	73.4874
401.1000	73.0432
401.0000	72.6095
400.9000	72.1261
400.8000	71.5582
400.7000	71.0918
400.6000	70.5708
400.5000	69.9977
400.4000	69.6303
400.3000	69.3093
400.2000	68.9233
400.1000	68.7085
400.0000	68.5203
399.9000	68.5
399.8000	68.4582
399.7000	68.5766
399.6000	68.7775
399.5000	68.9665
399.4000	69.1928
399.3000	69.5253
399.2000	69.9541
399.1000	70.3555
399.0000	70.7808
398.9000	71.2879
398.8000	71.7228
398.7000	72.1084
398.6000	72.5718
398.5000	72.9362
398.4000	73.2033
398.3000	73.378
398.2000	73.5452
398.1000	73.6175
398.0000	73.6603
397.9000	73.5611
397.8000	73.4685
397.7000	73.2716
397.6000	72.9941
397.5000	72.611
397.4000	72.2207
397.3000	71.807
397.2000	71.3334
397.1000	70.8657
397.0000	70.3718
396.9000	69.913
396.8000	69.5126
396.7000	69.1391
396.6000	68.7509
396.5000	68.4796
396.4000	68.1825
396.3000	68.059
396.2000	67.9207
396.1000	67.8584
396.0000	67.8848
395.9000	68.087
395.8000	68.3222
395.7000	68.5431
395.6000	68.793
395.5000	69.1943
395.4000	69.5887
395.3000	70.0483
395.2000	70.4579
395.1000	70.9419
395.0000	71.3424
394.9000	71.6763
394.8000	72.0717
394.7000	72.3522
394.6000	72.6079
394.5000	72.6953
394.4000	72.7785
394.3000	72.657
394.2000	72.4313
394.1000	72.1903
394.0000	71.9291
393.9000	71.5725
393.8000	71.1358
393.7000	70.5409
393.6000	70.0726
393.5000	69.4962
393.4000	69.0707
393.3000	68.5745
393.2000	68.1267
393.1000	67.6896
393.0000	67.3092
392.9000	67.0813
392.8000	66.8428
392.7000	66.7094
392.6000	66.7812
392.5000	66.83
392.4000	66.9944
392.3000	67.2516
392.2000	67.5416
392.1000	67.9609
392.0000	68.3532
391.9000	68.7971
391.8000	69.12
391.7000	69.5342
391.6000	69.9058
391.5000	70.2667
391.4000	70.601
391.3000	70.7582
391.2000	70.8975
391.1000	70.9701
391.0000	70.8931
390.9000	70.7727
390.8000	70.68
390.7000	70.3329
390.6000	70.03
390.5000	69.59
390.4000	69.1341
390.3000	68.6436
390.2000	68.2459
390.1000	67.7515
390.0000	67.2788
389.9000	66.8129
389.8000	66.4134
389.7000	66.1535
389.6000	65.9384
389.5000	65.7757
389.4000	65.7117
389.3000	65.75
389.2000	65.7618
389.1000	65.9543
389.0000	66.1383
388.9000	66.4333
388.8000	66.7263
388.7000	67.0979
388.6000	67.4776
388.5000	67.8647
388.4000	68.1855
388.3000	68.6002
388.2000	68.9266
388.1000	69.2157
388.0000	69.322
387.9000	69.4071
387.8000	69.4334
387.7000	69.3605
387.6000	69.1446
387.5000	68.9017
387.4000	68.6219
387.3000	68.2193
387.2000	67.7954
387.1000	67.2853
387.0000	66.7611
386.9000	66.2469
386.8000	65.7741
386.7000	65.2335
386.6000	64.857
386.5000	64.4499
386.4000	64.2536
386.3000	64.087
386.2000	63.9553
386.1000	63.9823
386.0000	64.0404
385.9000	64.1298
385.8000	64.3409
385.7000	64.5958
385.6000	64.9488
385.5000	65.2792
385.4000	65.6407
385.3000	66.1027
385.2000	66.5334
385.1000	66.9037
385.0000	67.136
384.9000	67.3544
384.8000	67.4132
384.7000	67.4987
384.6000	67.4296
384.5000	67.1978
384.4000	66.915
384.3000	66.5774
384.2000	66.2205
384.1000	65.8002
384.0000	65.2569
383.9000	64.7702
383.8000	64.2961
383.7000	63.7801
383.6000	63.3753
383.5000	63.0572
383.4000	62.6621
383.3000	62.4963
383.2000	62.4354
383.1000	62.3304
383.0000	62.3832
382.9000	62.5755
382.8000	62.8749
382.7000	63.2207
382.6000	63.4835
382.5000	63.9041
382.4000	64.342
382.3000	64.6867
382.2000	65.0373
382.1000	65.3046
382.0000	65.4126
381.9000	65.4905
381.8000	65.6758
381.7000	65.5855
381.6000	65.3944
381.5000	65.0875
381.4000	64.693
381.3000	64.2966
381.2000	63.7482
381.1000	63.1845
381.0000	62.7334
380.9000	62.2313
380.8000	61.7277
380.7000	61.3818
380.6000	61.0246
380.5000	60.8107
380.4000	60.676
380.3000	60.6708
380.2000	60.6663
380.1000	60.7482
380.0000	60.9208
379.9000	61.286
379.8000	61.627
379.7000	61.965
379.6000	62.3397
379.5000	62.7102
379.4000	62.9069
379.3000	63.1377
379.2000	63.3521
379.1000	63.3774
379.0000	63.3286
378.9000	63.1469
378.8000	62.8944
378.7000	62.5317
378.6000	62.1847
378.5000	61.7705
378.4000	61.3235
378.3000	60.8147
378.2000	60.3171
378.1000	59.834
378.0000	59.5407
377.9000	59.2512
377.8000	59.0976
377.7000	58.9668
377.6000	58.9607
377.5000	59.1663
377.4000	59.3756
377.3000	59.6339
377.2000	59.9192
377.1000	60.1844
377.0000	60.3924
376.9000	60.6279
376.8000	60.848
376.7000	61.0158
376.6000	61.1958
376.5000	61.1769
376.4000	61.0293
376.3000	60.816
376.2000	60.5559
376.1000	60.158
376.0000	59.6721
375.9000	59.1079
375.8000	58.681
375.7000	58.2853
375.6000	57.9965
375.5000	57.6489
375.4000	57.4697
375.3000	57.3774
375.2000	57.3281
375.1000	57.3135
375.0000	57.3248
374.9000	57.4911
374.8000	57.6836
374.7000	57.909
374.6000	58.0417
374.5000	58.2248
374.4000	58.4622
374.3000	58.5181
374.2000	58.5018
374.1000	58.3039
374.0000	58.027
373.9000	57.8106
373.8000	57.4681
373.7000	56.9917
373.6000	56.5392
373.5000	56.1165
373.4000	55.7223
373.3000	55.376
373.2000	55.1132
373.1000	54.8036
373.0000	54.635
372.9000	54.5156
372.8000	54.3178
372.7000	54.265
372.6000	54.1581
372.5000	54.1327
372.4000	54.0559
372.3000	53.9497
372.2000	53.8109
372.1000	53.6019
372.0000	53.3514
371.9000	52.9687
371.8000	52.5931
371.7000	52.1521
371.6000	51.5816
371.5000	51.1265
371.4000	50.6215
371.3000	50.1419
371.2000	49.6943
371.1000	49.2518
371.0000	48.8419
370.9000	48.439
370.8000	48.1428
370.7000	47.7555
370.6000	47.3357
370.5000	46.9551
370.4000	46.5285
370.3000	46.0817
370.2000	45.5915
370.1000	45.078
370.0000	44.6449
369.9000	44.0194
369.8000	43.3396
369.7000	42.6176
369.6000	41.863
369.5000	40.9736
369.4000	40.2483
369.3000	39.4917
369.2000	38.6314
369.1000	37.7779
369.0000	36.8973
368.9000	36.1345
368.8000	35.2825
368.7000	34.3663
368.6000	33.5218
368.5000	32.6313
368.4000	31.6609
368.3000	30.759
368.2000	29.8523
368.1000	28.9182
368.0000	27.8901
367.9000	26.9396
367.8000	25.835
367.7000	24.7563
367.6000	23.699
367.5000	22.6726
367.4000	21.6011
367.3000	20.4662
367.2000	19.4351
367.1000	18.4486
367.0000	17.4078
366.9000	16.39
366.8000	15.3922
366.7000	14.3871
366.6000	13.3825
366.5000	12.4007
366.4000	11.4605
366.3000	10.5543
366.2000	9.67868
366.1000	8.84057
366.0000	8.0119
365.9000	7.2421
365.8000	6.54188
365.7000	5.88108
365.6000	5.25541
365.5000	4.66748
365.4000	4.12818
365.3000	3.64635
365.2000	3.20009
365.1000	2.78513
365.0000	2.41292
364.9000	2.08659
364.8000	1.80814
364.7000	1.54914
364.6000	1.33487
364.5000	1.16491
364.4000	1.00883
364.3000	0.873057
364.2000	0.757039
364.1000	0.660073
364.0000	0.581296
363.9000	0.517696
363.8000	0.472527
363.7000	0.443843
363.6000	0.416527
363.5000	0.395371
363.4000	0.385291
363.3000	0.37489
363.2000	0.355585
363.1000	0.342978
363.0000	0.338915
362.9000	0.326674
362.8000	0.316695
362.7000	0.316736
362.6000	0.314113
362.5000	0.320862
362.4000	0.317192
362.3000	0.31675
362.2000	0.317493
362.1000	0.31125
362.0000	0.315813
361.9000	0.316608
361.8000	0.315877
361.7000	0.316543
361.6000	0.315943
361.5000	0.320078
361.4000	0.318418
361.3000	0.319849
361.2000	0.325182
361.1000	0.332499
361.0000	0.331656
360.9000	0.313132
360.8000	0.320118
360.7000	0.324798
360.6000	0.321954
360.5000	0.322049
360.4000	0.318254
360.3000	0.315326
360.2000	0.313087
360.1000	0.309663
360.0000	0.315748
359.9000	0.307494
359.8000	0.299236
359.7000	0.305264
359.6000	0.308109
359.5000	0.303774
359.4000	0.300869
359.3000	0.306283
359.2000	0.302902
359.1000	0.297088
359.0000	0.299735
358.9000	0.301123
358.8000	0.302265
358.7000	0.302036
358.6000	0.297956
358.5000	0.299537
358.4000	0.29865
358.3000	0.304348
358.2000	0.31672
358.1000	0.323644
358.0000	0.322369
357.9000	0.327097
357.8000	0.334299
357.7000	0.334879
357.6000	0.338037
357.5000	0.346646
357.4000	0.340669
357.3000	0.328622
357.2000	0.321256
357.1000	0.324286
357.0000	0.326537
356.9000	0.320966
356.8000	0.326001
356.7000	0.325956
356.6000	0.319517
356.5000	0.309444
356.4000	0.303738
356.3000	0.293739
356.2000	0.295534
356.1000	0.294957
356.0000	0.285508
355.9000	0.284615
355.8000	0.286464
355.7000	0.290219
355.6000	0.293686
355.5000	0.294522
355.4000	0.289971
355.3000	0.293768
355.2000	0.290761
355.1000	0.295033
355.0000	0.295131
354.9000	0.298617
354.8000	0.302062
354.7000	0.31222
354.6000	0.303639
354.5000	0.309557
354.4000	0.313081
354.3000	0.309218
354.2000	0.312654
354.1000	0.316653
354.0000	0.316577
353.9000	0.31925
353.8000	0.326616
353.7000	0.334075
353.6000	0.338425
353.5000	0.333084
353.4000	0.331375
353.3000	0.327329
353.2000	0.326244
353.1000	0.315079
353.0000	0.328625
352.9000	0.329442
352.8000	0.326752
352.7000	0.327452
352.6000	0.329061
352.5000	0.333823
352.4000	0.339645
352.3000	0.332642
352.2000	0.324753
352.1000	0.322982
352.0000	0.319725
351.9000	0.324185
351.8000	0.326121
351.7000	0.328359
351.6000	0.332967
351.5000	0.340825
351.4000	0.331901
351.3000	0.332267
351.2000	0.337802
351.1000	0.33375
351.0000	0.324732
350.9000	0.318874
350.8000	0.313789
350.7000	0.324902
350.6000	0.334207
350.5000	0.334619
350.4000	0.33872
350.3000	0.337654
350.2000	0.341193
350.1000	0.334348
350.0000	0.338656
349.9000	0.340213
349.8000	0.347128
349.7000	0.345574
349.6000	0.345
349.5000	0.346327
349.4000	0.35327
349.3000	0.359149
349.2000	0.363474
349.1000	0.348284
349.0000	0.342971
348.9000	0.339378
348.8000	0.342103
348.7000	0.342425
348.6000	0.338401
348.5000	0.341985
348.4000	0.334007
348.3000	0.333017
348.2000	0.336525
348.1000	0.333452
348.0000	0.33048
347.9000	0.338567
347.8000	0.345869
347.7000	0.341164
347.6000	0.336148
347.5000	0.343996
347.4000	0.352487
347.3000	0.359044
347.2000	0.35149
347.1000	0.348828
347.0000	0.348584
346.9000	0.363291
346.8000	0.368872
346.7000	0.360372
346.6000	0.348957
346.5000	0.356041
346.4000	0.359544
346.3000	0.358384
346.2000	0.352086
346.1000	0.352527
346.0000	0.360184
345.9000	0.356417
345.8000	0.345325
345.7000	0.34477
345.6000	0.356494
345.5000	0.361842
345.4000	0.358322
345.3000	0.350321
345.2000	0.352891
345.1000	0.36347
345.0000	0.366603
344.9000	0.360144
344.8000	0.354752
344.7000	0.353599
344.6000	0.349033
344.5000	0.357231
344.4000	0.355917
344.3000	0.356654
344.2000	0.35626
344.1000	0.349815
344.0000	0.347431
343.9000	0.344161
343.8000	0.351786
343.7000	0.353451
343.6000	0.353514
343.5000	0.354458
343.4000	0.349218
343.3000	0.358909
343.2000	0.365463
343.1000	0.36224
343.0000	0.382
342.9000	0.381911
342.8000	0.382617
342.7000	0.389765
342.6000	0.407183
342.5000	0.39928
342.4000	0.387028
342.3000	0.39408
342.2000	0.39878
342.1000	0.398828
342.0000	0.393078
341.9000	0.389991
341.8000	0.405635
341.7000	0.404881
341.6000	0.398957
341.5000	0.406372
341.4000	0.389302
341.3000	0.388281
341.2000	0.387152
341.1000	0.389943
341.0000	0.392924
340.9000	0.395083
340.8000	0.402881
340.7000	0.399913
340.6000	0.403408
340.5000	0.404736
340.4000	0.407765
340.3000	0.417554
340.2000	0.40967
340.1000	0.405241
340.0000	0.232668
339.9000	0.2367
339.8000	0.256228
339.7000	0.251488
339.6000	0.263162
339.5000	0.267733
339.4000	0.289171
339.3000	0.251333
339.2000	0.275609
339.1000	0.275082
339.0000	0.289749
338.9000	0.283584
338.8000	0.295967
338.7000	0.284355
338.6000	0.290533
338.5000	0.288871
338.4000	0.286712
338.3000	0.287148
338.2000	0.277392
338.1000	0.263676
338.0000	0.246952
337.9000	0.239183
337.8000	0.235843
337.7000	0.265013
337.6000	0.261661
337.5000	0.297378
337.4000	0.264225
337.3000	0.299587
337.2000	0.297719
337.1000	0.295371
337.0000	0.289038
336.9000	0.284375
336.8000	0.294627
336.7000	0.297114
336.6000	0.323681
336.5000	0.339566
336.4000	0.329858
336.3000	0.314523
336.2000	0.299356
336.1000	0.300679
336.0000	0.290676
335.9000	0.272845
335.8000	0.264933
335.7000	0.23106
335.6000	0.23405
335.5000	0.218239
335.4000	0.238366
335.3000	0.253147
335.2000	0.249748
335.1000	0.23416
335.0000	0.214309
334.9000	0.202751
334.8000	0.225795
334.7000	0.218259
334.6000	0.21224
334.5000	0.208538
334.4000	0.230866
334.3000	0.220874
334.2000	0.222276
334.1000	0.237708
334.0000	0.234566
333.9000	0.228872
333.8000	0.203191
333.7000	0.213301
333.6000	0.210005
333.5000	0.217538
333.4000	0.20108
333.3000	0.203802
333.2000	0.185169
333.1000	0.195193
333.0000	0.216841
332.9000	0.198018
332.8000	0.222316
332.7000	0.245386
332.6000	0.272447
332.5000	0.272069
332.4000	0.279372
332.3000	0.276686
332.2000	0.259887
332.1000	0.247219
332.0000	0.261063
331.9000	0.244721
331.8000	0.267338
331.7000	0.268325
331.6000	0.280053
331.5000	0.282385
331.4000	0.27467
331.3000	0.279911
331.2000	0.258817
331.1000	0.228534
331.0000	0.213992
330.9000	0.190031
330.8000	0.190806
330.7000	0.210622
330.6000	0.222868
330.5000	0.193938
330.4000	0.187055
330.3000	0.215936
330.2000	0.222015
330.1000	0.221417
330.0000	0.206227
329.9000	0.210534
329.8000	0.203149
329.7000	0.202921
329.6000	0.195279
329.5000	0.210962
329.4000	0.218263
329.3000	0.242818
329.2000	0.257073
329.1000	0.247733
329.0000	0.24814
328.9000	0.276574
328.8000	0.260869
328.7000	0.245604
328.6000	0.252387
328.5000	0.256383
328.4000	0.254139
328.3000	0.244641
328.2000	0.241799
328.1000	0.241859
328.0000	0.234898
327.9000	0.228473
327.8000	0.230783
327.7000	0.205453
327.6000	0.176596
327.5000	0.178071
327.4000	0.185803
327.3000	0.180715
327.2000	0.196574
327.1000	0.177989
327.0000	0.169822
326.9000	0.181409
326.8000	0.200136
326.7000	0.195092
326.6000	0.207133
326.5000	0.22356
326.4000	0.213563
326.3000	0.238851
326.2000	0.235377
326.1000	0.245848
326.0000	0.256733
325.9000	0.275612
325.8000	0.269894
325.7000	0.266296
325.6000	0.261986
325.5000	0.271911
325.4000	0.277041
325.3000	0.289902
325.2000	0.284327
325.1000	0.299349
325.0000	0.292028
324.9000	0.280691
324.8000	0.284559
324.7000	0.283873
324.6000	0.275518
324.5000	0.289229
324.4000	0.282784
324.3000	0.263365
324.2000	0.254506
324.1000	0.253286
324.0000	0.254643
323.9000	0.262141
323.8000	0.239014
323.7000	0.245217
323.6000	0.236566
323.5000	0.229667
323.4000	0.241756
323.3000	0.239228
323.2000	0.252559
323.1000	0.248617
323.0000	0.255952
322.9000	0.238105
322.8000	0.240887
322.7000	0.248503
322.6000	0.261305
322.5000	0.250756
322.4000	0.241745
322.3000	0.235366
322.2000	0.235948
322.1000	0.215206
322.0000	0.245159
321.9000	0.245233
321.8000	0.233188
321.7000	0.228196
321.6000	0.218591
321.5000	0.220305
321.4000	0.217429
321.3000	0.209295
321.2000	0.207663
321.1000	0.219723
321.0000	0.214185
320.9000	0.207097
320.8000	0.216951
320.7000	0.209989
320.6000	0.21717
320.5000	0.211293
320.4000	0.183169
320.3000	0.171349
320.2000	0.176584
320.1000	0.176106
320.0000	0.183618
319.9000	0.170247
319.8000	0.159527
319.7000	0.172088
319.6000	0.166238
319.5000	0.157571
319.4000	0.155457
319.3000	0.163583
319.2000	0.163308
319.1000	0.182002
319.0000	0.175642
318.9000	0.180181
318.8000	0.189086
318.7000	0.197906
318.6000	0.187297
318.5000	0.208618
318.4000	0.209326
318.3000	0.215913
318.2000	0.235434
318.1000	0.232482
318.0000	0.227867
317.9000	0.225375
317.8000	0.238703
317.7000	0.249904
317.6000	0.240013
317.5000	0.240601
317.4000	0.239273
317.3000	0.224987
317.2000	0.218767
317.1000	0.206896
317.0000	0.214156
316.9000	0.217608
316.8000	0.205578
316.7000	0.194229
316.6000	0.197996
316.5000	0.201974
316.4000	0.201541
316.3000	0.194321
316.2000	0.20238
316.1000	0.181644
316.0000	0.175434
315.9000	0.151216
315.8000	0.15842
315.7000	0.170315
315.6000	0.171458
315.5000	0.203271
315.4000	0.198458
315.3000	0.195696
315.2000	0.192772
315.1000	0.184044
315.0000	0.171451
314.9000	0.182934
314.8000	0.168709
314.7000	0.168302
314.6000	0.162088
314.5000	0.173077
314.4000	0.177142
314.3000	0.20864
314.2000	0.21773
314.1000	0.21173
314.0000	0.220674
313.9000	0.193403
313.8000	0.191532
313.7000	0.180724
313.6000	0.197038
313.5000	0.211064
313.4000	0.206535
313.3000	0.192501
313.2000	0.219667
313.1000	0.226003
313.0000	0.221075
312.9000	0.218633
312.8000	0.218598
312.7000	0.199383
312.6000	0.195697
312.5000	0.187903
312.4000	0.167813
312.3000	0.180477
312.2000	0.175365
312.1000	0.175152
312.0000	0.166805
311.9000	0.153885
311.8000	0.153574
311.7000	0.159077
311.6000	0.152263
311.5000	0.15748
311.4000	0.135128
311.3000	0.133437
311.2000	0.145904
311.1000	0.139789
311.0000	0.137009
310.9000	0.14014
310.8000	0.156563
310.7000	0.172294
310.6000	0.191695
310.5000	0.192506
310.4000	0.194725
310.3000	0.205507
310.2000	0.221528
310.1000	0.218142
310.0000	0.228144
309.9000	0.233543
309.8000	0.248236
309.7000	0.250659
309.6000	0.24041
309.5000	0.256221
309.4000	0.260591
309.3000	0.25513
309.2000	0.254273
309.1000	0.245034
309.0000	0.238968
308.9000	0.247883
308.8000	0.253778
308.7000	0.245732
308.6000	0.229458
308.5000	0.228621
308.4000	0.221125
308.3000	0.19734
308.2000	0.205005
308.1000	0.22619
308.0000	0.220239
307.9000	0.22311
307.8000	0.212977
307.7000	0.221299
307.6000	0.22388
307.5000	0.208396
307.4000	0.207212
307.3000	0.195022
307.2000	0.170981
307.1000	0.180582
307.0000	0.177921
306.9000	0.16824
306.8000	0.172639
306.7000	0.186119
306.6000	0.17639
306.5000	0.161089
306.4000	0.179681
306.3000	0.156018
306.2000	0.15897
306.1000	0.169315
306.0000	0.15717
305.9000	0.168774
305.8000	0.167478
305.7000	0.162739
305.6000	0.190008
305.5000	0.188836
305.4000	0.202088
305.3000	0.215366
305.2000	0.208922
305.1000	0.203852
305.0000	0.2116
304.9000	0.216368
304.8000	0.2089
304.7000	0.212721
304.6000	0.211955
304.5000	0.202723
304.4000	0.200654
304.3000	0.198489
304.2000	0.194685
304.1000	0.186718
304.0000	0.175001
303.9000	0.164875
303.8000	0.152235
303.7000	0.157044
303.6000	0.158983
303.5000	0.160307
303.4000	0.161015
303.3000	0.166921
303.2000	0.163162
303.1000	0.167923
303.0000	0.169425
302.9000	0.178535
302.8000	0.183059
302.7000	0.176006
302.6000	0.187308
302.5000	0.202874
302.4000	0.206461
302.3000	0.215672
302.2000	0.223638
302.1000	0.210411
302.0000	0.22421
301.9000	0.229386
301.8000	0.219325
301.7000	0.20322
301.6000	0.197848
301.5000	0.198684
301.4000	0.18371
301.3000	0.16339
301.2000	0.165586
301.1000	0.165629
301.0000	0.156889
300.9000	0.1495
300.8000	0.145424
300.7000	0.136748
300.6000	0.13997
300.5000	0.148534
300.4000	0.13796
300.3000	0.141294
300.2000	0.140932
300.1000	0.149518
300.0000	0.1673
