TITLE	12_7
DATA TYPE	ULTRAVIOLET SPECTRUM
ORIGIN	JASCO
OWNER	
DATE	21/05/05
TIME	17:39:15
SPECTROMETER/DATA SYSTEM	
RESOLUTION	
DELTAX	-0.1
XUNITS	NANOMETERS
YUNITS	TRANSMITTANCE
FIRSTX	  850.0000
LASTX	  300.0000
NPOINTS	    5501
FIRSTY	    81.42360
MAXY	    84.89939
MINY	     0.10530
XYDATA
850.0000	81.4236
849.9000	81.6612
849.8000	81.5794
849.7000	81.6977
849.6000	81.9497
849.5000	81.8237
849.4000	81.9922
849.3000	81.9096
849.2000	82.0959
849.1000	82.0091
849.0000	82.2702
848.9000	82.3026
848.8000	82.4783
848.7000	82.2731
848.6000	82.3022
848.5000	82.423
848.4000	82.6868
848.3000	82.7704
848.2000	83.0307
848.1000	83.1392
848.0000	83.2161
847.9000	83.4217
847.8000	83.5551
847.7000	83.6558
847.6000	83.675
847.5000	83.7831
847.4000	83.7717
847.3000	84.0179
847.2000	84.0225
847.1000	84.3548
847.0000	84.4699
846.9000	84.4349
846.8000	84.5751
846.7000	84.4763
846.6000	84.4643
846.5000	84.7368
846.4000	84.7874
846.3000	84.875
846.2000	84.6771
846.1000	84.8436
846.0000	84.6984
845.9000	84.7701
845.8000	84.8994
845.7000	84.708
845.6000	84.7993
845.5000	84.6661
845.4000	84.579
845.3000	84.4959
845.2000	84.446
845.1000	84.4814
845.0000	84.4907
844.9000	84.2315
844.8000	84.2435
844.7000	84.1281
844.6000	84.32
844.5000	84.2237
844.4000	84.2987
844.3000	84.1802
844.2000	84.0704
844.1000	84.1208
844.0000	84.0798
843.9000	84.1399
843.8000	84.2443
843.7000	84.1597
843.6000	84.0813
843.5000	84.1568
843.4000	84.0104
843.3000	83.9674
843.2000	83.7739
843.1000	83.6135
843.0000	83.4042
842.9000	83.1943
842.8000	83.1315
842.7000	82.9106
842.6000	82.8253
842.5000	82.6783
842.4000	82.6241
842.3000	82.3298
842.2000	81.9267
842.1000	81.9416
842.0000	81.7131
841.9000	81.5342
841.8000	81.5377
841.7000	81.2536
841.6000	81.0808
841.5000	80.9918
841.4000	80.9551
841.3000	80.8875
841.2000	80.7638
841.1000	80.7748
841.0000	80.657
840.9000	80.3734
840.8000	80.0233
840.7000	79.924
840.6000	80.0033
840.5000	79.6985
840.4000	79.4361
840.3000	79.2423
840.2000	79.006
840.1000	78.9512
840.0000	78.8358
839.9000	78.7058
839.8000	78.5143
839.7000	78.2408
839.6000	78.0307
839.5000	77.8198
839.4000	77.5882
839.3000	77.4804
839.2000	77.4439
839.1000	77.3421
839.0000	77.1717
838.9000	77.1123
838.8000	77.0779
838.7000	76.9126
838.6000	76.8893
838.5000	76.7055
838.4000	76.6967
838.3000	76.5047
838.2000	76.2481
838.1000	76.2168
838.0000	75.9807
837.9000	75.9754
837.8000	75.8293
837.7000	75.7095
837.6000	75.582
837.5000	75.4768
837.4000	75.4248
837.3000	75.3146
837.2000	75.117
837.1000	75.1049
837.0000	75.01
836.9000	74.9051
836.8000	74.7621
836.7000	74.5739
836.6000	74.4608
836.5000	74.2213
836.4000	74.3026
836.3000	74.1087
836.2000	74.0582
836.1000	74.0415
836.0000	73.9472
835.9000	73.8033
835.8000	73.5845
835.7000	73.49
835.6000	73.5298
835.5000	73.4654
835.4000	73.2575
835.3000	73.1893
835.2000	73.2033
835.1000	73.3525
835.0000	73.4305
834.9000	73.5634
834.8000	73.4636
834.7000	73.4499
834.6000	73.4414
834.5000	73.3163
834.4000	73.2504
834.3000	73.2138
834.2000	73.1085
834.1000	73.0181
834.0000	73.029
833.9000	72.9214
833.8000	72.8668
833.7000	72.9422
833.6000	72.8477
833.5000	72.5911
833.4000	72.4475
833.3000	72.4009
833.2000	72.3422
833.1000	72.3599
833.0000	72.3779
832.9000	72.4082
832.8000	72.469
832.7000	72.5187
832.6000	72.6147
832.5000	72.6842
832.4000	72.6191
832.3000	72.7114
832.2000	72.701
832.1000	72.5836
832.0000	72.6216
831.9000	72.711
831.8000	72.7356
831.7000	72.7618
831.6000	72.8396
831.5000	72.8092
831.4000	72.9213
831.3000	73.0914
831.2000	73.1548
831.1000	73.1439
831.0000	73.2752
830.9000	73.4168
830.8000	73.5199
830.7000	73.509
830.6000	73.6622
830.5000	73.8567
830.4000	74.0446
830.3000	74.3604
830.2000	74.4574
830.1000	74.6338
830.0000	74.7575
829.9000	74.8589
829.8000	74.9071
829.7000	74.8736
829.6000	75.0151
829.5000	75.1494
829.4000	75.248
829.3000	75.2567
829.2000	75.3947
829.1000	75.5426
829.0000	75.7267
828.9000	75.8314
828.8000	75.8343
828.7000	75.8231
828.6000	75.981
828.5000	76.0161
828.4000	76.0057
828.3000	76.1848
828.2000	76.3441
828.1000	76.4742
828.0000	76.5827
827.9000	76.7542
827.8000	76.8451
827.7000	77.0053
827.6000	77.2691
827.5000	77.4082
827.4000	77.4519
827.3000	77.6796
827.2000	77.8785
827.1000	77.9239
827.0000	78.2478
826.9000	78.4484
826.8000	78.7875
826.7000	78.8566
826.6000	78.8941
826.5000	79.1145
826.4000	79.2552
826.3000	79.3742
826.2000	79.5207
826.1000	79.7049
826.0000	79.7719
825.9000	79.8075
825.8000	79.9545
825.7000	80.0025
825.6000	80.2022
825.5000	80.423
825.4000	80.4398
825.3000	80.6813
825.2000	80.8124
825.1000	80.9581
825.0000	81.1336
824.9000	81.3287
824.8000	81.4138
824.7000	81.6022
824.6000	81.6953
824.5000	81.7503
824.4000	81.9525
824.3000	82.1494
824.2000	82.357
824.1000	82.4534
824.0000	82.4645
823.9000	82.6392
823.8000	82.6621
823.7000	82.7153
823.6000	82.8566
823.5000	82.9348
823.4000	83.063
823.3000	83.1398
823.2000	83.0813
823.1000	83.2654
823.0000	83.389
822.9000	83.636
822.8000	83.4796
822.7000	83.6446
822.6000	83.6627
822.5000	83.7833
822.4000	83.8479
822.3000	83.8221
822.2000	84.0029
822.1000	83.9538
822.0000	84.0147
821.9000	84.1493
821.8000	84.2161
821.7000	84.148
821.6000	84.3242
821.5000	84.2702
821.4000	84.28
821.3000	84.1165
821.2000	84.224
821.1000	84.2398
821.0000	84.1637
820.9000	84.0258
820.8000	84.0861
820.7000	84.2259
820.6000	84.1929
820.5000	84.1868
820.4000	84.116
820.3000	84.1204
820.2000	84.0127
820.1000	83.9546
820.0000	83.9639
819.9000	83.7674
819.8000	83.6959
819.7000	83.7591
819.6000	83.6595
819.5000	83.5277
819.4000	83.5686
819.3000	83.7136
819.2000	83.618
819.1000	83.5154
819.0000	83.3521
818.9000	83.3275
818.8000	83.0859
818.7000	82.9908
818.6000	82.9421
818.5000	82.9266
818.4000	82.7553
818.3000	82.7445
818.2000	82.8012
818.1000	82.6238
818.0000	82.5217
817.9000	82.4651
817.8000	82.2969
817.7000	82.0947
817.6000	81.9603
817.5000	81.7875
817.4000	81.6512
817.3000	81.4486
817.2000	81.4641
817.1000	81.2851
817.0000	81.1009
816.9000	80.8984
816.8000	80.7167
816.7000	80.5832
816.6000	80.1806
816.5000	80.0076
816.4000	79.8796
816.3000	79.6605
816.2000	79.5002
816.1000	79.3909
816.0000	79.1173
815.9000	78.9223
815.8000	78.7053
815.7000	78.5628
815.6000	78.2813
815.5000	78.0539
815.4000	77.7859
815.3000	77.6552
815.2000	77.4681
815.1000	77.2738
815.0000	77.2534
814.9000	77.1804
814.8000	76.9662
814.7000	76.7356
814.6000	76.5238
814.5000	76.2805
814.4000	76.2327
814.3000	76.0896
814.2000	76.0854
814.1000	75.9374
814.0000	75.8132
813.9000	75.7364
813.8000	75.7274
813.7000	75.6543
813.6000	75.6966
813.5000	75.543
813.4000	75.3854
813.3000	75.1405
813.2000	75.1012
813.1000	75.0116
813.0000	74.8907
812.9000	74.7853
812.8000	74.5219
812.7000	74.3048
812.6000	74.1513
812.5000	74
812.4000	73.9167
812.3000	73.8053
812.2000	73.6665
812.1000	73.4602
812.0000	73.1938
811.9000	73.099
811.8000	73.0624
811.7000	73.0204
811.6000	72.8469
811.5000	72.7473
811.4000	72.7495
811.3000	72.6441
811.2000	72.6606
811.1000	72.6621
811.0000	72.6095
810.9000	72.6614
810.8000	72.6281
810.7000	72.5006
810.6000	72.5655
810.5000	72.5395
810.4000	72.5293
810.3000	72.5682
810.2000	72.4987
810.1000	72.5147
810.0000	72.4231
809.9000	72.5117
809.8000	72.5172
809.7000	72.533
809.6000	72.4435
809.5000	72.5502
809.4000	72.4581
809.3000	72.4315
809.2000	72.4263
809.1000	72.5209
809.0000	72.4686
808.9000	72.4828
808.8000	72.5339
808.7000	72.5765
808.6000	72.5434
808.5000	72.5784
808.4000	72.7385
808.3000	72.7829
808.2000	72.8275
808.1000	72.8827
808.0000	72.9678
807.9000	72.9177
807.8000	73.0887
807.7000	73.1216
807.6000	73.2756
807.5000	73.3349
807.4000	73.3076
807.3000	73.3723
807.2000	73.509
807.1000	73.5283
807.0000	73.6618
806.9000	73.7516
806.8000	73.8129
806.7000	73.8389
806.6000	73.8411
806.5000	73.9589
806.4000	74.1714
806.3000	74.3002
806.2000	74.3464
806.1000	74.4327
806.0000	74.4153
805.9000	74.6482
805.8000	74.7738
805.7000	74.9886
805.6000	75.0927
805.5000	75.2575
805.4000	75.3981
805.3000	75.5708
805.2000	75.6926
805.1000	75.7494
805.0000	75.9887
804.9000	76.1971
804.8000	76.3661
804.7000	76.4726
804.6000	76.6538
804.5000	76.7841
804.4000	77.0188
804.3000	77.1326
804.2000	77.4383
804.1000	77.5286
804.0000	77.7464
803.9000	77.8486
803.8000	77.992
803.7000	78.13
803.6000	78.3306
803.5000	78.6683
803.4000	78.8262
803.3000	78.9632
803.2000	79.0591
803.1000	79.2621
803.0000	79.3638
802.9000	79.4275
802.8000	79.5666
802.7000	79.6083
802.6000	79.6913
802.5000	79.9398
802.4000	80.0859
802.3000	80.3086
802.2000	80.4657
802.1000	80.5688
802.0000	80.741
801.9000	80.9043
801.8000	81.105
801.7000	81.235
801.6000	81.3565
801.5000	81.5041
801.4000	81.6147
801.3000	81.8499
801.2000	81.8769
801.1000	82.1485
801.0000	82.3029
800.9000	82.38
800.8000	82.4104
800.7000	82.5096
800.6000	82.6383
800.5000	82.7104
800.4000	82.7179
800.3000	82.7297
800.2000	82.7186
800.1000	82.9019
800.0000	83.0406
799.9000	83.1203
799.8000	83.342
799.7000	83.4127
799.6000	83.5225
799.5000	83.4622
799.4000	83.433
799.3000	83.663
799.2000	83.7042
799.1000	83.7883
799.0000	83.8034
798.9000	84.0066
798.8000	84.1759
798.7000	84.2216
798.6000	84.3054
798.5000	84.1254
798.4000	84.1766
798.3000	84.163
798.2000	84.115
798.1000	84.1259
798.0000	84.1119
797.9000	84.1684
797.8000	84.1926
797.7000	84.0432
797.6000	84.0906
797.5000	83.9408
797.4000	83.8978
797.3000	83.7783
797.2000	83.6527
797.1000	83.5447
797.0000	83.4527
796.9000	83.4902
796.8000	83.3281
796.7000	83.2422
796.6000	83.0533
796.5000	83.0735
796.4000	83.0836
796.3000	83.0026
796.2000	82.9398
796.1000	82.7376
796.0000	82.6368
795.9000	82.6674
795.8000	82.6269
795.7000	82.4785
795.6000	82.3747
795.5000	82.3744
795.4000	82.1978
795.3000	82.0794
795.2000	81.9982
795.1000	81.8303
795.0000	81.8429
794.9000	81.6316
794.8000	81.4678
794.7000	81.2775
794.6000	80.9649
794.5000	80.9403
794.4000	80.7296
794.3000	80.448
794.2000	80.2924
794.1000	80.1408
794.0000	79.984
793.9000	79.8036
793.8000	79.7552
793.7000	79.6365
793.6000	79.5089
793.5000	79.3897
793.4000	79.1999
793.3000	79.0086
793.2000	78.8349
793.1000	78.6751
793.0000	78.6495
792.9000	78.3096
792.8000	78.0034
792.7000	77.8835
792.6000	77.5419
792.5000	77.3701
792.4000	77.1945
792.3000	77.0257
792.2000	76.7657
792.1000	76.5318
792.0000	76.2261
791.9000	76.0167
791.8000	75.838
791.7000	75.6785
791.6000	75.4743
791.5000	75.3059
791.4000	75.1592
791.3000	75.1423
791.2000	75.058
791.1000	74.8865
791.0000	74.9093
790.9000	74.6906
790.8000	74.572
790.7000	74.444
790.6000	74.2831
790.5000	74.1659
790.4000	74.1272
790.3000	74.136
790.2000	73.9797
790.1000	73.7758
790.0000	73.7334
789.9000	73.6796
789.8000	73.4966
789.7000	73.3296
789.6000	73.234
789.5000	73.1002
789.4000	72.9638
789.3000	72.9514
789.2000	72.7838
789.1000	72.5843
789.0000	72.6102
788.9000	72.4912
788.8000	72.3248
788.7000	72.1952
788.6000	72.1867
788.5000	72.2496
788.4000	72.197
788.3000	72.1887
788.2000	72.1852
788.1000	72.0788
788.0000	72.0433
787.9000	72.1315
787.8000	72.06
787.7000	72.0486
787.6000	72.1112
787.5000	72.137
787.4000	72.1348
787.3000	72.153
787.2000	72.2277
787.1000	72.2955
787.0000	72.3088
786.9000	72.3067
786.8000	72.3215
786.7000	72.3235
786.6000	72.3722
786.5000	72.4699
786.4000	72.589
786.3000	72.5805
786.2000	72.7445
786.1000	72.6901
786.0000	72.7066
785.9000	72.8168
785.8000	72.9169
785.7000	72.9387
785.6000	72.9941
785.5000	72.9743
785.4000	73.0944
785.3000	73.2002
785.2000	73.2444
785.1000	73.2445
785.0000	73.2985
784.9000	73.5032
784.8000	73.467
784.7000	73.5617
784.6000	73.6163
784.5000	73.7645
784.4000	73.9328
784.3000	74.0546
784.2000	74.1222
784.1000	74.2452
784.0000	74.3581
783.9000	74.5157
783.8000	74.599
783.7000	74.7328
783.6000	74.8401
783.5000	75.0068
783.4000	75.2192
783.3000	75.3449
783.2000	75.616
783.1000	75.72
783.0000	75.9002
782.9000	76.0381
782.8000	76.142
782.7000	76.2412
782.6000	76.3666
782.5000	76.5913
782.4000	76.7537
782.3000	76.9506
782.2000	77.0842
782.1000	77.2128
782.0000	77.5172
781.9000	77.7356
781.8000	77.8728
781.7000	77.9726
781.6000	78.0666
781.5000	78.2324
781.4000	78.3619
781.3000	78.602
781.2000	78.7496
781.1000	78.921
781.0000	79.0704
780.9000	79.2254
780.8000	79.4886
780.7000	79.5819
780.6000	79.7157
780.5000	79.9296
780.4000	80
780.3000	80.0704
780.2000	80.2092
780.1000	80.3307
780.0000	80.5418
779.9000	80.7622
779.8000	80.9898
779.7000	81.1339
779.6000	81.2351
779.5000	81.3753
779.4000	81.5587
779.3000	81.6722
779.2000	81.7999
779.1000	81.9875
779.0000	82.1987
778.9000	82.3145
778.8000	82.3854
778.7000	82.5377
778.6000	82.6421
778.5000	82.7592
778.4000	82.9196
778.3000	82.9966
778.2000	83.0288
778.1000	83.1897
778.0000	83.3074
777.9000	83.4776
777.8000	83.5368
777.7000	83.6353
777.6000	83.7251
777.5000	83.7494
777.4000	83.7481
777.3000	83.7614
777.2000	83.7741
777.1000	83.71
777.0000	83.7521
776.9000	83.8603
776.8000	83.8449
776.7000	83.8336
776.6000	83.7541
776.5000	83.6703
776.4000	83.6555
776.3000	83.65
776.2000	83.608
776.1000	83.5548
776.0000	83.4312
775.9000	83.3836
775.8000	83.2724
775.7000	83.1957
775.6000	83.208
775.5000	83.2341
775.4000	83.1428
775.3000	83.0717
775.2000	83.019
775.1000	83.0522
775.0000	82.9944
774.9000	82.7879
774.8000	82.6902
774.7000	82.4588
774.6000	82.3175
774.5000	82.2553
774.4000	82.1346
774.3000	82.0033
774.2000	82.0134
774.1000	81.8362
774.0000	81.6495
773.9000	81.4779
773.8000	81.4199
773.7000	81.1732
773.6000	81.0531
773.5000	80.8538
773.4000	80.8159
773.3000	80.7549
773.2000	80.6183
773.1000	80.4686
773.0000	80.3505
772.9000	80.1117
772.8000	79.844
772.7000	79.6913
772.6000	79.4833
772.5000	79.4163
772.4000	79.2024
772.3000	79.0831
772.2000	78.8954
772.1000	78.784
772.0000	78.5101
771.9000	78.3654
771.8000	78.051
771.7000	77.8937
771.6000	77.7189
771.5000	77.5533
771.4000	77.4113
771.3000	77.3521
771.2000	77.3437
771.1000	77.0825
771.0000	76.833
770.9000	76.6351
770.8000	76.579
770.7000	76.3782
770.6000	76.1678
770.5000	75.896
770.4000	75.7624
770.3000	75.5328
770.2000	75.3522
770.1000	75.1431
770.0000	75.0096
769.9000	74.8573
769.8000	74.6805
769.7000	74.4147
769.6000	74.2933
769.5000	74.1901
769.4000	74.0791
769.3000	73.8302
769.2000	73.7058
769.1000	73.6282
769.0000	73.5404
768.9000	73.4681
768.8000	73.3956
768.7000	73.2667
768.6000	73.1509
768.5000	73.046
768.4000	72.9541
768.3000	72.8058
768.2000	72.6107
768.1000	72.5465
768.0000	72.3041
767.9000	72.2083
767.8000	72.1211
767.7000	72.097
767.6000	71.9962
767.5000	71.87
767.4000	71.8217
767.3000	71.8162
767.2000	71.7046
767.1000	71.6251
767.0000	71.6492
766.9000	71.6317
766.8000	71.5161
766.7000	71.5274
766.6000	71.5672
766.5000	71.5074
766.4000	71.5811
766.3000	71.6023
766.2000	71.5905
766.1000	71.7446
766.0000	71.6998
765.9000	71.7418
765.8000	71.7261
765.7000	71.6974
765.6000	71.7577
765.5000	71.8242
765.4000	71.809
765.3000	71.8576
765.2000	71.9339
765.1000	71.9565
765.0000	72.0553
764.9000	72.1332
764.8000	72.2882
764.7000	72.3463
764.6000	72.3984
764.5000	72.4326
764.4000	72.4662
764.3000	72.5441
764.2000	72.6669
764.1000	72.7072
764.0000	72.7998
763.9000	72.8831
763.8000	73.0121
763.7000	73.0912
763.6000	73.2384
763.5000	73.363
763.4000	73.4382
763.3000	73.6236
763.2000	73.6966
763.1000	73.7197
763.0000	73.9
762.9000	73.9192
762.8000	74.047
762.7000	74.1196
762.6000	74.191
762.5000	74.3992
762.4000	74.5653
762.3000	74.7294
762.2000	74.8875
762.1000	75.0993
762.0000	75.2446
761.9000	75.3868
761.8000	75.6461
761.7000	75.7283
761.6000	75.8552
761.5000	76.1242
761.4000	76.3008
761.3000	76.5224
761.2000	76.8087
761.1000	77.0688
761.0000	77.277
760.9000	77.5023
760.8000	77.6729
760.7000	77.8092
760.6000	78.031
760.5000	78.1037
760.4000	78.2756
760.3000	78.5373
760.2000	78.6567
760.1000	78.9482
760.0000	79.226
759.9000	79.5257
759.8000	79.611
759.7000	79.8062
759.6000	79.9035
759.5000	80.0368
759.4000	80.2373
759.3000	80.3383
759.2000	80.4568
759.1000	80.7202
759.0000	80.8558
758.9000	81.0072
758.8000	81.0893
758.7000	81.225
758.6000	81.3677
758.5000	81.4298
758.4000	81.5273
758.3000	81.4622
758.2000	81.6816
758.1000	81.768
758.0000	81.912
757.9000	82.0733
757.8000	82.1051
757.7000	82.2388
757.6000	82.2855
757.5000	82.3489
757.4000	82.43
757.3000	82.5418
757.2000	82.6446
757.1000	82.7036
757.0000	82.7242
756.9000	82.8127
756.8000	82.8036
756.7000	82.9483
756.6000	82.9913
756.5000	83.0416
756.4000	83.08
756.3000	83.0483
756.2000	83.1759
756.1000	83.1656
756.0000	83.2153
755.9000	83.1482
755.8000	83.0597
755.7000	83.0818
755.6000	83.0832
755.5000	83.1097
755.4000	83.0744
755.3000	82.9813
755.2000	82.8963
755.1000	82.8703
755.0000	82.8161
754.9000	82.7525
754.8000	82.7211
754.7000	82.6738
754.6000	82.4013
754.5000	82.3247
754.4000	82.2496
754.3000	82.1775
754.2000	82.0648
754.1000	81.9754
754.0000	81.898
753.9000	81.6909
753.8000	81.6248
753.7000	81.4782
753.6000	81.368
753.5000	81.2325
753.4000	81.05
753.3000	80.8782
753.2000	80.7468
753.1000	80.5455
753.0000	80.4908
752.9000	80.2851
752.8000	80.1119
752.7000	79.9284
752.6000	79.7944
752.5000	79.6178
752.4000	79.3988
752.3000	79.2297
752.2000	79.0499
752.1000	78.9258
752.0000	78.686
751.9000	78.4356
751.8000	78.289
751.7000	78.051
751.6000	77.7776
751.5000	77.5878
751.4000	77.389
751.3000	77.2248
751.2000	76.9667
751.1000	76.7827
751.0000	76.6441
750.9000	76.3929
750.8000	76.1469
750.7000	76.0348
750.6000	75.8154
750.5000	75.6267
750.4000	75.4729
750.3000	75.2543
750.2000	75.0507
750.1000	74.8561
750.0000	74.658
749.9000	74.3692
749.8000	74.2446
749.7000	74.0784
749.6000	73.8905
749.5000	73.7032
749.4000	73.5417
749.3000	73.397
749.2000	73.3074
749.1000	73.0886
749.0000	72.9075
748.9000	72.7228
748.8000	72.5137
748.7000	72.3984
748.6000	72.2215
748.5000	72.1697
748.4000	72.1017
748.3000	72.1002
748.2000	71.9684
748.1000	71.8804
748.0000	71.787
747.9000	71.6687
747.8000	71.6307
747.7000	71.5792
747.6000	71.4644
747.5000	71.4082
747.4000	71.3758
747.3000	71.2921
747.2000	71.2221
747.1000	71.1665
747.0000	71.1762
746.9000	71.0688
746.8000	71.0207
746.7000	70.9506
746.6000	70.9088
746.5000	70.8141
746.4000	70.8691
746.3000	70.8802
746.2000	70.7562
746.1000	70.7549
746.0000	70.7776
745.9000	70.7446
745.8000	70.707
745.7000	70.7142
745.6000	70.7875
745.5000	70.8431
745.4000	70.7952
745.3000	70.9052
745.2000	71.0109
745.1000	71.1089
745.0000	71.1343
744.9000	71.237
744.8000	71.2935
744.7000	71.4099
744.6000	71.6437
744.5000	71.7215
744.4000	71.786
744.3000	71.8811
744.2000	71.9982
744.1000	72.1312
744.0000	72.2675
743.9000	72.3183
743.8000	72.4578
743.7000	72.5167
743.6000	72.6402
743.5000	72.7626
743.4000	72.9505
743.3000	73.1088
743.2000	73.1891
743.1000	73.3346
743.0000	73.3183
742.9000	73.4976
742.8000	73.6865
742.7000	73.8978
742.6000	74.0393
742.5000	74.2123
742.4000	74.4044
742.3000	74.6483
742.2000	74.9005
742.1000	75.0731
742.0000	75.26
741.9000	75.4643
741.8000	75.6371
741.7000	75.7955
741.6000	76.0228
741.5000	76.1887
741.4000	76.4731
741.3000	76.6981
741.2000	76.8904
741.1000	77.0172
741.0000	77.2982
740.9000	77.56
740.8000	77.7496
740.7000	77.9846
740.6000	78.1982
740.5000	78.458
740.4000	78.5802
740.3000	78.8618
740.2000	79.0955
740.1000	79.3263
740.0000	79.0089
739.9000	79.2441
739.8000	79.3858
739.7000	79.5966
739.6000	79.7762
739.5000	79.9915
739.4000	80.1966
739.3000	80.3047
739.2000	80.4715
739.1000	80.7092
739.0000	80.8374
738.9000	80.896
738.8000	81.0527
738.7000	81.2995
738.6000	81.3991
738.5000	81.5926
738.4000	81.7362
738.3000	81.9154
738.2000	82.0771
738.1000	82.1215
738.0000	82.2693
737.9000	82.3397
737.8000	82.43
737.7000	82.5647
737.6000	82.6111
737.5000	82.6005
737.4000	82.7104
737.3000	82.8277
737.2000	82.861
737.1000	82.8304
737.0000	82.9053
736.9000	82.8172
736.8000	82.9123
736.7000	82.8305
736.6000	82.8161
736.5000	82.8342
736.4000	82.7339
736.3000	82.7566
736.2000	82.7032
736.1000	82.6217
736.0000	82.597
735.9000	82.6484
735.8000	82.5495
735.7000	82.4669
735.6000	82.4622
735.5000	82.3483
735.4000	82.1638
735.3000	82.1388
735.2000	81.9607
735.1000	81.9437
735.0000	81.8739
734.9000	81.8278
734.8000	81.7796
734.7000	81.5787
734.6000	81.4806
734.5000	81.2959
734.4000	81.1256
734.3000	81.0361
734.2000	80.8132
734.1000	80.6435
734.0000	80.4091
733.9000	80.2943
733.8000	80.1994
733.7000	80.0644
733.6000	79.9551
733.5000	79.7699
733.4000	79.5592
733.3000	79.3215
733.2000	79.117
733.1000	78.9668
733.0000	78.7567
732.9000	78.6237
732.8000	78.4228
732.7000	78.0859
732.6000	77.9905
732.5000	77.8033
732.4000	77.5949
732.3000	77.3988
732.2000	77.1565
732.1000	76.8685
732.0000	76.5866
731.9000	76.34
731.8000	76.1587
731.7000	75.9793
731.6000	75.7318
731.5000	75.4931
731.4000	75.2249
731.3000	74.9548
731.2000	74.7322
731.1000	74.5687
731.0000	74.31
730.9000	74.0777
730.8000	73.8791
730.7000	73.6478
730.6000	73.4863
730.5000	73.3128
730.4000	73.1862
730.3000	73.0005
730.2000	72.7613
730.1000	72.6189
730.0000	72.5053
729.9000	72.3817
729.8000	72.2993
729.7000	72.2413
729.6000	72.142
729.5000	72.0034
729.4000	71.8637
729.3000	71.8012
729.2000	71.734
729.1000	71.6127
729.0000	71.495
728.9000	71.4189
728.8000	71.321
728.7000	71.2444
728.6000	71.2539
728.5000	71.0981
728.4000	71.0005
728.3000	70.8909
728.2000	70.8353
728.1000	70.6619
728.0000	70.6624
727.9000	70.6552
727.8000	70.6339
727.7000	70.5764
727.6000	70.4643
727.5000	70.4765
727.4000	70.4829
727.3000	70.4543
727.2000	70.4001
727.1000	70.3867
727.0000	70.2879
726.9000	70.3608
726.8000	70.3584
726.7000	70.3964
726.6000	70.3992
726.5000	70.4991
726.4000	70.471
726.3000	70.5522
726.2000	70.5844
726.1000	70.6339
726.0000	70.7221
725.9000	70.7842
725.8000	70.8647
725.7000	70.9427
725.6000	71.0409
725.5000	71.18
725.4000	71.3854
725.3000	71.4465
725.2000	71.6258
725.1000	71.7131
725.0000	71.8407
724.9000	71.9189
724.8000	72.0252
724.7000	72.144
724.6000	72.2782
724.5000	72.446
724.4000	72.6441
724.3000	72.7767
724.2000	72.9158
724.1000	73.1032
724.0000	73.2879
723.9000	73.4674
723.8000	73.6277
723.7000	73.8332
723.6000	73.9447
723.5000	74.1882
723.4000	74.3523
723.3000	74.6051
723.2000	74.8658
723.1000	75.0605
723.0000	75.2977
722.9000	75.4958
722.8000	75.696
722.7000	75.8861
722.6000	76.1389
722.5000	76.2847
722.4000	76.502
722.3000	76.6696
722.2000	76.8596
722.1000	77.1038
722.0000	77.3373
721.9000	77.51
721.8000	77.6824
721.7000	77.9241
721.6000	78.0673
721.5000	78.3123
721.4000	78.5286
721.3000	78.7063
721.2000	78.8799
721.1000	79.1543
721.0000	79.2554
720.9000	79.4736
720.8000	79.6382
720.7000	79.8337
720.6000	80.029
720.5000	80.141
720.4000	80.3195
720.3000	80.4873
720.2000	80.6697
720.1000	80.7982
720.0000	80.9747
719.9000	81.0607
719.8000	81.2034
719.7000	81.3296
719.6000	81.4802
719.5000	81.5469
719.4000	81.7179
719.3000	81.8108
719.2000	81.9362
719.1000	82.0404
719.0000	82.0756
718.9000	82.213
718.8000	82.2906
718.7000	82.3157
718.6000	82.3976
718.5000	82.3735
718.4000	82.3808
718.3000	82.3883
718.2000	82.3788
718.1000	82.3754
718.0000	82.35
717.9000	82.3247
717.8000	82.257
717.7000	82.2657
717.6000	82.247
717.5000	82.1826
717.4000	82.1767
717.3000	82.109
717.2000	82.0558
717.1000	82.0365
717.0000	81.9571
716.9000	81.9106
716.8000	81.8511
716.7000	81.7225
716.6000	81.6293
716.5000	81.5398
716.4000	81.4492
716.3000	81.3451
716.2000	81.2283
716.1000	81.0532
716.0000	80.8704
715.9000	80.7328
715.8000	80.5559
715.7000	80.3634
715.6000	80.1758
715.5000	79.9944
715.4000	79.7764
715.3000	79.5618
715.2000	79.3286
715.1000	79.1338
715.0000	78.9206
714.9000	78.7078
714.8000	78.5008
714.7000	78.2959
714.6000	78.1495
714.5000	77.9779
714.4000	77.74
714.3000	77.508
714.2000	77.2985
714.1000	76.9871
714.0000	76.6979
713.9000	76.4576
713.8000	76.2173
713.7000	75.9868
713.6000	75.7957
713.5000	75.6253
713.4000	75.4059
713.3000	75.1779
713.2000	74.9141
713.1000	74.6499
713.0000	74.3531
712.9000	74.0972
712.8000	73.9089
712.7000	73.7539
712.6000	73.518
712.5000	73.4141
712.4000	73.2579
712.3000	73.0915
712.2000	72.926
712.1000	72.7251
712.0000	72.5268
711.9000	72.3203
711.8000	72.146
711.7000	71.9938
711.6000	71.8632
711.5000	71.6955
711.4000	71.5528
711.3000	71.4338
711.2000	71.2464
711.1000	71.0314
711.0000	70.9181
710.9000	70.7733
710.8000	70.5952
710.7000	70.4638
710.6000	70.3685
710.5000	70.2823
710.4000	70.1344
710.3000	70.0341
710.2000	69.8802
710.1000	69.8028
710.0000	69.6922
709.9000	69.6471
709.8000	69.5943
709.7000	69.5617
709.6000	69.5568
709.5000	69.4985
709.4000	69.5044
709.3000	69.4802
709.2000	69.5295
709.1000	69.5243
709.0000	69.5265
708.9000	69.5752
708.8000	69.6152
708.7000	69.6735
708.6000	69.7753
708.5000	69.8284
708.4000	69.8677
708.3000	69.9522
708.2000	70.0545
708.1000	70.1022
708.0000	70.1717
707.9000	70.3008
707.8000	70.3616
707.7000	70.4817
707.6000	70.568
707.5000	70.6445
707.4000	70.7896
707.3000	70.9117
707.2000	71.0548
707.1000	71.2063
707.0000	71.3851
706.9000	71.5184
706.8000	71.7296
706.7000	71.9047
706.6000	72.0287
706.5000	72.2224
706.4000	72.4019
706.3000	72.5944
706.2000	72.7606
706.1000	72.908
706.0000	73.1122
705.9000	73.354
705.8000	73.517
705.7000	73.6808
705.6000	73.8709
705.5000	74.0531
705.4000	74.2611
705.3000	74.4875
705.2000	74.7074
705.1000	74.8866
705.0000	75.1244
704.9000	75.3343
704.8000	75.588
704.7000	75.7892
704.6000	76.0645
704.5000	76.3077
704.4000	76.5603
704.3000	76.7826
704.2000	77.0131
704.1000	77.3024
704.0000	77.5948
703.9000	77.8216
703.8000	78.0012
703.7000	78.2321
703.6000	78.4713
703.5000	78.7386
703.4000	78.9395
703.3000	79.1162
703.2000	79.3273
703.1000	79.5501
703.0000	79.773
702.9000	80.0019
702.8000	80.1686
702.7000	80.3759
702.6000	80.5558
702.5000	80.7075
702.4000	80.8334
702.3000	80.9778
702.2000	81.149
702.1000	81.2746
702.0000	81.3338
701.9000	81.4333
701.8000	81.586
701.7000	81.7511
701.6000	81.8077
701.5000	81.8784
701.4000	81.8779
701.3000	81.9263
701.2000	82.0148
701.1000	82.0231
701.0000	82.0424
700.9000	82.0284
700.8000	82.0764
700.7000	82.1035
700.6000	82.0898
700.5000	82.0482
700.4000	82.0737
700.3000	82.0075
700.2000	81.9464
700.1000	81.8757
700.0000	81.8303
699.9000	81.7549
699.8000	81.7114
699.7000	81.5989
699.6000	81.4581
699.5000	81.3799
699.4000	81.31
699.3000	81.2293
699.2000	81.0934
699.1000	80.9636
699.0000	80.8199
698.9000	80.6823
698.8000	80.5091
698.7000	80.386
698.6000	80.1972
698.5000	79.9986
698.4000	79.8073
698.3000	79.6274
698.2000	79.4631
698.1000	79.2799
698.0000	79.0954
697.9000	78.8512
697.8000	78.6666
697.7000	78.4341
697.6000	78.2192
697.5000	77.9727
697.4000	77.7612
697.3000	77.526
697.2000	77.3034
697.1000	77.0961
697.0000	76.8821
696.9000	76.6864
696.8000	76.4866
696.7000	76.2516
696.6000	75.9696
696.5000	75.7404
696.4000	75.5086
696.3000	75.2799
696.2000	74.9749
696.1000	74.7643
696.0000	74.5141
695.9000	74.2987
695.8000	74.0473
695.7000	73.8273
695.6000	73.6057
695.5000	73.3415
695.4000	73.1074
695.3000	72.8698
695.2000	72.6773
695.1000	72.5042
695.0000	72.3166
694.9000	72.1245
694.8000	71.9168
694.7000	71.7767
694.6000	71.6363
694.5000	71.447
694.4000	71.2794
694.3000	71.1136
694.2000	70.9647
694.1000	70.8372
694.0000	70.6967
693.9000	70.5614
693.8000	70.471
693.7000	70.3977
693.6000	70.2442
693.5000	70.0988
693.4000	70.0091
693.3000	69.9368
693.2000	69.8449
693.1000	69.7701
693.0000	69.7192
692.9000	69.6756
692.8000	69.6602
692.7000	69.6306
692.6000	69.5888
692.5000	69.5702
692.4000	69.5405
692.3000	69.5216
692.2000	69.5398
692.1000	69.4981
692.0000	69.5026
691.9000	69.5191
691.8000	69.5347
691.7000	69.55
691.6000	69.645
691.5000	69.6767
691.4000	69.7288
691.3000	69.7867
691.2000	69.8521
691.1000	69.9123
691.0000	70.0275
690.9000	70.0932
690.8000	70.1854
690.7000	70.294
690.6000	70.3864
690.5000	70.5332
690.4000	70.6765
690.3000	70.8497
690.2000	70.9951
690.1000	71.1871
690.0000	71.2989
689.9000	71.4485
689.8000	71.5973
689.7000	71.7759
689.6000	71.9488
689.5000	72.1251
689.4000	72.3341
689.3000	72.5423
689.2000	72.7678
689.1000	73.0156
689.0000	73.2323
688.9000	73.4277
688.8000	73.6602
688.7000	73.904
688.6000	74.1235
688.5000	74.3622
688.4000	74.6326
688.3000	74.8884
688.2000	75.1571
688.1000	75.3791
688.0000	75.594
687.9000	75.9094
687.8000	76.1037
687.7000	76.3651
687.6000	76.6084
687.5000	76.8047
687.4000	77.0344
687.3000	77.3179
687.2000	77.5961
687.1000	77.8374
687.0000	78.0708
686.9000	78.3088
686.8000	78.5141
686.7000	78.7121
686.6000	78.916
686.5000	79.1502
686.4000	79.4554
686.3000	79.6339
686.2000	79.8857
686.1000	80.0684
686.0000	80.2657
685.9000	80.5179
685.8000	80.7076
685.7000	80.8565
685.6000	80.9377
685.5000	81.0539
685.4000	81.2102
685.3000	81.3158
685.2000	81.4761
685.1000	81.6154
685.0000	81.7248
684.9000	81.8247
684.8000	81.8716
684.7000	81.9394
684.6000	81.9767
684.5000	82.0641
684.4000	82.0757
684.3000	82.0972
684.2000	82.1127
684.1000	82.1312
684.0000	82.1272
683.9000	82.1196
683.8000	82.1376
683.7000	82.1132
683.6000	82.0526
683.5000	81.9604
683.4000	81.8565
683.3000	81.755
683.2000	81.6871
683.1000	81.5691
683.0000	81.487
682.9000	81.3989
682.8000	81.2906
682.7000	81.1649
682.6000	81.0445
682.5000	80.9224
682.4000	80.8554
682.3000	80.6743
682.2000	80.4958
682.1000	80.3332
682.0000	80.155
681.9000	80.0022
681.8000	79.8691
681.7000	79.7102
681.6000	79.4784
681.5000	79.2964
681.4000	79.1032
681.3000	78.8711
681.2000	78.6595
681.1000	78.4335
681.0000	78.1911
680.9000	77.9166
680.8000	77.6502
680.7000	77.4132
680.6000	77.1752
680.5000	76.9299
680.4000	76.7057
680.3000	76.4589
680.2000	76.1922
680.1000	75.9694
680.0000	75.7486
679.9000	75.4734
679.8000	75.2264
679.7000	75.0023
679.6000	74.775
679.5000	74.4988
679.4000	74.2688
679.3000	74.0383
679.2000	73.8057
679.1000	73.5972
679.0000	73.346
678.9000	73.1091
678.8000	72.9104
678.7000	72.7328
678.6000	72.5223
678.5000	72.3208
678.4000	72.1607
678.3000	72.0318
678.2000	71.8166
678.1000	71.6224
678.0000	71.4439
677.9000	71.2809
677.8000	71.0933
677.7000	70.9393
677.6000	70.8259
677.5000	70.7293
677.4000	70.5984
677.3000	70.5119
677.2000	70.3763
677.1000	70.284
677.0000	70.1904
676.9000	70.1231
676.8000	69.9907
676.7000	69.9149
676.6000	69.9106
676.5000	69.8966
676.4000	69.8683
676.3000	69.876
676.2000	69.9131
676.1000	69.963
676.0000	69.9319
675.9000	69.8732
675.8000	69.9275
675.7000	69.9338
675.6000	69.9616
675.5000	69.9563
675.4000	70.037
675.3000	70.0811
675.2000	70.1712
675.1000	70.2435
675.0000	70.2881
674.9000	70.3453
674.8000	70.4747
674.7000	70.5765
674.6000	70.6935
674.5000	70.7422
674.4000	70.8452
674.3000	70.9845
674.2000	71.1187
674.1000	71.2737
674.0000	71.4571
673.9000	71.647
673.8000	71.8045
673.7000	72.0018
673.6000	72.1826
673.5000	72.3571
673.4000	72.5777
673.3000	72.7904
673.2000	72.9655
673.1000	73.2337
673.0000	73.4541
672.9000	73.7162
672.8000	73.9954
672.7000	74.2836
672.6000	74.5665
672.5000	74.8331
672.4000	75.057
672.3000	75.2935
672.2000	75.5292
672.1000	75.7497
672.0000	75.9745
671.9000	76.2269
671.8000	76.4553
671.7000	76.6918
671.6000	76.9543
671.5000	77.1045
671.4000	77.3083
671.3000	77.5773
671.2000	77.7757
671.1000	78.0315
671.0000	78.2187
670.9000	78.4362
670.8000	78.6804
670.7000	78.9077
670.6000	79.1541
670.5000	79.3788
670.4000	79.6367
670.3000	79.8579
670.2000	80.085
670.1000	80.2924
670.0000	80.4589
669.9000	80.7024
669.8000	80.9051
669.7000	81.0677
669.6000	81.2295
669.5000	81.3294
669.4000	81.5038
669.3000	81.6262
669.2000	81.7474
669.1000	81.91
669.0000	82.0182
668.9000	82.1018
668.8000	82.1656
668.7000	82.1948
668.6000	82.2208
668.5000	82.2312
668.4000	82.2867
668.3000	82.331
668.2000	82.3434
668.1000	82.3216
668.0000	82.3369
667.9000	82.3341
667.8000	82.2425
667.7000	82.2029
667.6000	82.14
667.5000	82.0139
667.4000	81.9058
667.3000	81.8451
667.2000	81.75
667.1000	81.6901
667.0000	81.5852
666.9000	81.4918
666.8000	81.3629
666.7000	81.176
666.6000	81.0403
666.5000	80.8251
666.4000	80.6513
666.3000	80.4868
666.2000	80.3588
666.1000	80.1725
666.0000	79.9596
665.9000	79.7742
665.8000	79.5436
665.7000	79.2897
665.6000	79.0048
665.5000	78.763
665.4000	78.5152
665.3000	78.2451
665.2000	77.9889
665.1000	77.6831
665.0000	77.3816
664.9000	77.2004
664.8000	76.9263
664.7000	76.6891
664.6000	76.4178
664.5000	76.1313
664.4000	75.8742
664.3000	75.6296
664.2000	75.4021
664.1000	75.1389
664.0000	74.9327
663.9000	74.6906
663.8000	74.4494
663.7000	74.2111
663.6000	73.9524
663.5000	73.8125
663.4000	73.6243
663.3000	73.3711
663.2000	73.2048
663.1000	72.9699
663.0000	72.7719
662.9000	72.6126
662.8000	72.4347
662.7000	72.2146
662.6000	72.0363
662.5000	71.8518
662.4000	71.7226
662.3000	71.5747
662.2000	71.4148
662.1000	71.2773
662.0000	71.1768
661.9000	71.0142
661.8000	70.888
661.7000	70.8131
661.6000	70.7226
661.5000	70.6432
661.4000	70.5637
661.3000	70.4382
661.2000	70.3704
661.1000	70.317
661.0000	70.2904
660.9000	70.3161
660.8000	70.2746
660.7000	70.2828
660.6000	70.3164
660.5000	70.3104
660.4000	70.3292
660.3000	70.3481
660.2000	70.3679
660.1000	70.4041
660.0000	70.4371
659.9000	70.5149
659.8000	70.5925
659.7000	70.6973
659.6000	70.7617
659.5000	70.8899
659.4000	70.999
659.3000	71.1173
659.2000	71.2551
659.1000	71.3873
659.0000	71.5232
658.9000	71.7078
658.8000	71.8709
658.7000	72.0418
658.6000	72.2417
658.5000	72.4281
658.4000	72.6258
658.3000	72.8282
658.2000	73.0167
658.1000	73.2234
658.0000	73.488
657.9000	73.7036
657.8000	73.9759
657.7000	74.2197
657.6000	74.4929
657.5000	74.7188
657.4000	74.9675
657.3000	75.232
657.2000	75.4881
657.1000	75.7564
657.0000	76.0052
656.9000	76.2567
656.8000	76.4897
656.7000	76.7494
656.6000	77.0424
656.5000	77.3603
656.4000	77.6173
656.3000	77.9014
656.2000	78.1396
656.1000	78.3795
656.0000	78.6329
655.9000	78.9057
655.8000	79.1597
655.7000	79.396
655.6000	79.632
655.5000	79.8992
655.4000	80.1742
655.3000	80.4052
655.2000	80.6341
655.1000	80.8132
655.0000	80.9946
654.9000	81.1319
654.8000	81.35
654.7000	81.4858
654.6000	81.6361
654.5000	81.819
654.4000	81.8625
654.3000	81.9857
654.2000	82.144
654.1000	82.2526
654.0000	82.3376
653.9000	82.443
653.8000	82.476
653.7000	82.5517
653.6000	82.6184
653.5000	82.6552
653.4000	82.6925
653.3000	82.7155
653.2000	82.6511
653.1000	82.6695
653.0000	82.6232
652.9000	82.5549
652.8000	82.5647
652.7000	82.4692
652.6000	82.409
652.5000	82.3139
652.4000	82.2126
652.3000	82.1091
652.2000	81.9966
652.1000	81.8906
652.0000	81.7615
651.9000	81.6014
651.8000	81.4109
651.7000	81.2277
651.6000	81.0778
651.5000	80.9
651.4000	80.7142
651.3000	80.5215
651.2000	80.3292
651.1000	80.1387
651.0000	79.8442
650.9000	79.6409
650.8000	79.3936
650.7000	79.1223
650.6000	78.84
650.5000	78.5217
650.4000	78.2827
650.3000	78.0586
650.2000	77.8148
650.1000	77.5455
650.0000	77.2862
649.9000	77.0335
649.8000	76.7779
649.7000	76.485
649.6000	76.2359
649.5000	75.9505
649.4000	75.7293
649.3000	75.5048
649.2000	75.3313
649.1000	75.0974
649.0000	74.9216
648.9000	74.7104
648.8000	74.4685
648.7000	74.2237
648.6000	73.9811
648.5000	73.8261
648.4000	73.5906
648.3000	73.3892
648.2000	73.1757
648.1000	72.9906
648.0000	72.7748
647.9000	72.6174
647.8000	72.4681
647.7000	72.2692
647.6000	72.0618
647.5000	71.9087
647.4000	71.7274
647.3000	71.6459
647.2000	71.5397
647.1000	71.4606
647.0000	71.3618
646.9000	71.2644
646.8000	71.1877
646.7000	71.1347
646.6000	71.0905
646.5000	71.0489
646.4000	71.0417
646.3000	71.0447
646.2000	71.0005
646.1000	71.0137
646.0000	71.0681
645.9000	71.0769
645.8000	71.1382
645.7000	71.1599
645.6000	71.1746
645.5000	71.2201
645.4000	71.339
645.3000	71.4374
645.2000	71.5542
645.1000	71.6595
645.0000	71.7818
644.9000	71.9256
644.8000	72.0196
644.7000	72.1631
644.6000	72.3457
644.5000	72.5512
644.4000	72.6902
644.3000	72.8503
644.2000	73.0437
644.1000	73.2045
644.0000	73.4118
643.9000	73.623
643.8000	73.8294
643.7000	74.0573
643.6000	74.3123
643.5000	74.5716
643.4000	74.7857
643.3000	75.0416
643.2000	75.336
643.1000	75.598
643.0000	75.8641
642.9000	76.0739
642.8000	76.3586
642.7000	76.6407
642.6000	76.869
642.5000	77.1989
642.4000	77.4997
642.3000	77.8129
642.2000	78.075
642.1000	78.266
642.0000	78.4869
641.9000	78.6994
641.8000	79.0016
641.7000	79.2523
641.6000	79.463
641.5000	79.7091
641.4000	79.9219
641.3000	80.1652
641.2000	80.41
641.1000	80.6648
641.0000	80.9276
640.9000	81.1087
640.8000	81.311
640.7000	81.5171
640.6000	81.701
640.5000	81.9321
640.4000	82.1248
640.3000	82.2677
640.2000	82.4103
640.1000	82.5622
640.0000	82.702
639.9000	82.8137
639.8000	82.9082
639.7000	82.9753
639.6000	83.0624
639.5000	83.0808
639.4000	83.082
639.3000	83.1271
639.2000	83.1393
639.1000	83.1164
639.0000	83.115
638.9000	83.103
638.8000	83.103
638.7000	83.085
638.6000	83.0294
638.5000	82.9294
638.4000	82.8196
638.3000	82.7232
638.2000	82.6472
638.1000	82.5637
638.0000	82.3937
637.9000	82.277
637.8000	82.1439
637.7000	81.9722
637.6000	81.8024
637.5000	81.6491
637.4000	81.4279
637.3000	81.2655
637.2000	81.0218
637.1000	80.778
637.0000	80.5152
636.9000	80.3203
636.8000	80.1153
636.7000	79.8276
636.6000	79.5718
636.5000	79.2883
636.4000	79.0196
636.3000	78.7493
636.2000	78.4978
636.1000	78.2395
636.0000	77.9516
635.9000	77.6726
635.8000	77.4532
635.7000	77.1673
635.6000	76.9178
635.5000	76.6965
635.4000	76.4843
635.3000	76.1954
635.2000	75.9577
635.1000	75.7265
635.0000	75.487
634.9000	75.271
634.8000	75.0175
634.7000	74.7754
634.6000	74.5643
634.5000	74.3318
634.4000	74.1606
634.3000	73.9595
634.2000	73.7541
634.1000	73.5598
634.0000	73.3545
633.9000	73.1903
633.8000	73.0605
633.7000	72.8952
633.6000	72.7287
633.5000	72.5896
633.4000	72.4572
633.3000	72.3424
633.2000	72.2705
633.1000	72.2207
633.0000	72.1427
632.9000	72.0632
632.8000	71.984
632.7000	71.9025
632.6000	71.8592
632.5000	71.8228
632.4000	71.8141
632.3000	71.7911
632.2000	71.7419
632.1000	71.7731
632.0000	71.8371
631.9000	71.8949
631.8000	71.9584
631.7000	71.9953
631.6000	72.0646
631.5000	72.145
631.4000	72.2532
631.3000	72.4122
631.2000	72.5493
631.1000	72.6711
631.0000	72.8099
630.9000	72.9826
630.8000	73.1603
630.7000	73.372
630.6000	73.5476
630.5000	73.7334
630.4000	73.9027
630.3000	74.0967
630.2000	74.2818
630.1000	74.5119
630.0000	74.734
629.9000	74.9797
629.8000	75.1872
629.7000	75.3792
629.6000	75.6422
629.5000	75.9181
629.4000	76.1757
629.3000	76.4021
629.2000	76.6693
629.1000	76.8884
629.0000	77.1942
628.9000	77.4705
628.8000	77.7524
628.7000	78.0304
628.6000	78.3008
628.5000	78.5467
628.4000	78.8624
628.3000	79.1037
628.2000	79.3877
628.1000	79.7141
628.0000	79.9829
627.9000	80.2366
627.8000	80.4984
627.7000	80.7372
627.6000	80.9681
627.5000	81.2385
627.4000	81.4438
627.3000	81.6732
627.2000	81.8798
627.1000	82.0978
627.0000	82.375
626.9000	82.5944
626.8000	82.7756
626.7000	82.9752
626.6000	83.1249
626.5000	83.2184
626.4000	83.3195
626.3000	83.4254
626.2000	83.4693
626.1000	83.5641
626.0000	83.6237
625.9000	83.6847
625.8000	83.7334
625.7000	83.7368
625.6000	83.7477
625.5000	83.6968
625.4000	83.6512
625.3000	83.6084
625.2000	83.5263
625.1000	83.4283
625.0000	83.3213
624.9000	83.2366
624.8000	83.1306
624.7000	83.017
624.6000	82.9574
624.5000	82.8488
624.4000	82.6818
624.3000	82.4681
624.2000	82.2834
624.1000	82.1288
624.0000	81.9357
623.9000	81.7377
623.8000	81.5014
623.7000	81.2655
623.6000	81.0157
623.5000	80.7601
623.4000	80.5281
623.3000	80.2829
623.2000	80.0185
623.1000	79.7386
623.0000	79.4506
622.9000	79.1703
622.8000	78.9316
622.7000	78.6541
622.6000	78.3902
622.5000	78.1058
622.4000	77.8535
622.3000	77.6229
622.2000	77.3446
622.1000	77.0853
622.0000	76.8354
621.9000	76.5616
621.8000	76.3099
621.7000	76.0418
621.6000	75.8228
621.5000	75.5822
621.4000	75.3637
621.3000	75.115
621.2000	74.8969
621.1000	74.7262
621.0000	74.5255
620.9000	74.3084
620.8000	74.1275
620.7000	73.9564
620.6000	73.7458
620.5000	73.6691
620.4000	73.5218
620.3000	73.3743
620.2000	73.2664
620.1000	73.141
620.0000	73.0255
619.9000	72.9352
619.8000	72.8305
619.7000	72.7508
619.6000	72.6897
619.5000	72.6548
619.4000	72.5854
619.3000	72.5913
619.2000	72.5594
619.1000	72.5401
619.0000	72.6098
618.9000	72.5497
618.8000	72.5748
618.7000	72.6538
618.6000	72.6857
618.5000	72.7455
618.4000	72.7976
618.3000	72.8981
618.2000	72.9776
618.1000	73.0691
618.0000	73.2036
617.9000	73.2725
617.8000	73.4446
617.7000	73.5987
617.6000	73.7478
617.5000	73.9269
617.4000	74.0935
617.3000	74.3251
617.2000	74.5229
617.1000	74.706
617.0000	74.9509
616.9000	75.2244
616.8000	75.4902
616.7000	75.7241
616.6000	76.0008
616.5000	76.3139
616.4000	76.5371
616.3000	76.8075
616.2000	77.0562
616.1000	77.3112
616.0000	77.5856
615.9000	77.8283
615.8000	78.1008
615.7000	78.328
615.6000	78.6
615.5000	78.9048
615.4000	79.2037
615.3000	79.4524
615.2000	79.6784
615.1000	79.9579
615.0000	80.2203
614.9000	80.4272
614.8000	80.7416
614.7000	80.9979
614.6000	81.2664
614.5000	81.5056
614.4000	81.7658
614.3000	82.0533
614.2000	82.2391
614.1000	82.4363
614.0000	82.6257
613.9000	82.7732
613.8000	82.909
613.7000	83.0663
613.6000	83.2229
613.5000	83.2906
613.4000	83.4187
613.3000	83.5546
613.2000	83.6022
613.1000	83.698
613.0000	83.7217
612.9000	83.7585
612.8000	83.7963
612.7000	83.7267
612.6000	83.6915
612.5000	83.6905
612.4000	83.6603
612.3000	83.6361
612.2000	83.5409
612.1000	83.4303
612.0000	83.3063
611.9000	83.2766
611.8000	83.1464
611.7000	83.0023
611.6000	82.8376
611.5000	82.6709
611.4000	82.5363
611.3000	82.3579
611.2000	82.1279
611.1000	81.9398
611.0000	81.7331
610.9000	81.4909
610.8000	81.296
610.7000	81.0364
610.6000	80.7864
610.5000	80.5406
610.4000	80.2894
610.3000	79.97
610.2000	79.6815
610.1000	79.3838
610.0000	79.0744
609.9000	78.7771
609.8000	78.4322
609.7000	78.1452
609.6000	77.8271
609.5000	77.5709
609.4000	77.3147
609.3000	77.0348
609.2000	76.7062
609.1000	76.4798
609.0000	76.2528
608.9000	76.0394
608.8000	75.8364
608.7000	75.6013
608.6000	75.3604
608.5000	75.1406
608.4000	74.967
608.3000	74.8047
608.2000	74.6228
608.1000	74.4292
608.0000	74.218
607.9000	74.0487
607.8000	73.9032
607.7000	73.7562
607.6000	73.6356
607.5000	73.4925
607.4000	73.3456
607.3000	73.222
607.2000	73.0803
607.1000	73.0555
607.0000	72.9807
606.9000	72.9469
606.8000	72.8943
606.7000	72.8657
606.6000	72.8336
606.5000	72.8569
606.4000	72.9145
606.3000	72.9223
606.2000	72.9322
606.1000	73.0132
606.0000	73.0849
605.9000	73.1904
605.8000	73.2881
605.7000	73.3921
605.6000	73.5423
605.5000	73.6446
605.4000	73.798
605.3000	73.9184
605.2000	74.0725
605.1000	74.2335
605.0000	74.4763
604.9000	74.6287
604.8000	74.8265
604.7000	75.0687
604.6000	75.3134
604.5000	75.5688
604.4000	75.7741
604.3000	76.017
604.2000	76.2552
604.1000	76.4825
604.0000	76.7216
603.9000	76.995
603.8000	77.2618
603.7000	77.5547
603.6000	77.8444
603.5000	78.1103
603.4000	78.3557
603.3000	78.6824
603.2000	78.9905
603.1000	79.2668
603.0000	79.5792
602.9000	79.825
602.8000	80.1372
602.7000	80.3718
602.6000	80.6447
602.5000	80.9678
602.4000	81.2682
602.3000	81.4908
602.2000	81.7634
602.1000	82.0012
602.0000	82.2155
601.9000	82.3942
601.8000	82.598
601.7000	82.7395
601.6000	82.8895
601.5000	83.0297
601.4000	83.1687
601.3000	83.2899
601.2000	83.4489
601.1000	83.5458
601.0000	83.6973
600.9000	83.7253
600.8000	83.7258
600.7000	83.7617
600.6000	83.7528
600.5000	83.7689
600.4000	83.7576
600.3000	83.7404
600.2000	83.711
600.1000	83.6782
600.0000	83.5485
599.9000	83.4642
599.8000	83.3655
599.7000	83.2607
599.6000	83.1277
599.5000	83.0074
599.4000	82.8209
599.3000	82.6234
599.2000	82.3696
599.1000	82.1553
599.0000	81.9065
598.9000	81.7051
598.8000	81.5108
598.7000	81.2876
598.6000	81.0451
598.5000	80.7573
598.4000	80.4752
598.3000	80.192
598.2000	79.9016
598.1000	79.5729
598.0000	79.3042
597.9000	79.0136
597.8000	78.7228
597.7000	78.4468
597.6000	78.1205
597.5000	77.8089
597.4000	77.519
597.3000	77.2276
597.2000	76.9235
597.1000	76.6236
597.0000	76.3496
596.9000	76.0951
596.8000	75.7885
596.7000	75.522
596.6000	75.2866
596.5000	75.047
596.4000	74.8426
596.3000	74.6134
596.2000	74.4194
596.1000	74.1978
596.0000	74.0787
595.9000	73.9168
595.8000	73.7601
595.7000	73.5927
595.6000	73.4528
595.5000	73.3222
595.4000	73.2128
595.3000	73.1471
595.2000	73.1157
595.1000	73.0484
595.0000	73.0105
594.9000	72.9853
594.8000	72.9177
594.7000	72.8927
594.6000	72.8832
594.5000	72.925
594.4000	72.9353
594.3000	72.9958
594.2000	73.0656
594.1000	73.1346
594.0000	73.2275
593.9000	73.3331
593.8000	73.4292
593.7000	73.5589
593.6000	73.6832
593.5000	73.8621
593.4000	73.9958
593.3000	74.1644
593.2000	74.3143
593.1000	74.5437
593.0000	74.7266
592.9000	74.9799
592.8000	75.216
592.7000	75.4404
592.6000	75.6843
592.5000	75.9433
592.4000	76.1857
592.3000	76.4673
592.2000	76.7631
592.1000	76.9774
592.0000	77.29
591.9000	77.587
591.8000	77.9455
591.7000	78.2621
591.6000	78.5858
591.5000	78.8517
591.4000	79.1829
591.3000	79.4392
591.2000	79.7061
591.1000	79.9522
591.0000	80.27
590.9000	80.5483
590.8000	80.8423
590.7000	81.1114
590.6000	81.3954
590.5000	81.6496
590.4000	81.8672
590.3000	82.0537
590.2000	82.2028
590.1000	82.3982
590.0000	82.5604
589.9000	82.7255
589.8000	82.8884
589.7000	83.0397
589.6000	83.203
589.5000	83.3543
589.4000	83.4002
589.3000	83.5038
589.2000	83.5569
589.1000	83.5852
589.0000	83.5497
588.9000	83.6059
588.8000	83.5958
588.7000	83.5696
588.6000	83.5122
588.5000	83.4658
588.4000	83.4176
588.3000	83.276
588.2000	83.1413
588.1000	82.9727
588.0000	82.8318
587.9000	82.6362
587.8000	82.4629
587.7000	82.2304
587.6000	81.9755
587.5000	81.7519
587.4000	81.534
587.3000	81.2721
587.2000	81.0051
587.1000	80.7169
587.0000	80.4761
586.9000	80.1531
586.8000	79.8817
586.7000	79.6046
586.6000	79.3064
586.5000	78.9794
586.4000	78.6124
586.3000	78.3374
586.2000	78.0277
586.1000	77.7297
586.0000	77.4439
585.9000	77.1503
585.8000	76.834
585.7000	76.5222
585.6000	76.196
585.5000	75.9002
585.4000	75.6061
585.3000	75.3285
585.2000	75.0528
585.1000	74.8138
585.0000	74.5415
584.9000	74.3516
584.8000	74.2064
584.7000	73.9655
584.6000	73.7818
584.5000	73.6025
584.4000	73.448
584.3000	73.3077
584.2000	73.146
584.1000	72.9932
584.0000	72.8791
583.9000	72.7987
583.8000	72.6569
583.7000	72.565
583.6000	72.4679
583.5000	72.4451
583.4000	72.4503
583.3000	72.3999
583.2000	72.3717
583.1000	72.392
583.0000	72.4317
582.9000	72.4656
582.8000	72.5044
582.7000	72.5454
582.6000	72.6647
582.5000	72.8127
582.4000	72.9919
582.3000	73.1271
582.2000	73.3207
582.1000	73.5196
582.0000	73.7318
581.9000	73.8867
581.8000	74.0611
581.7000	74.2991
581.6000	74.539
581.5000	74.7869
581.4000	75.0156
581.3000	75.2579
581.2000	75.5332
581.1000	75.8095
581.0000	76.0816
580.9000	76.3533
580.8000	76.6321
580.7000	76.9543
580.6000	77.2421
580.5000	77.5674
580.4000	77.8675
580.3000	78.1827
580.2000	78.5
580.1000	78.7828
580.0000	79.0504
579.9000	79.3339
579.8000	79.5866
579.7000	79.8607
579.6000	80.142
579.5000	80.3664
579.4000	80.6252
579.3000	80.8948
579.2000	81.1243
579.1000	81.3515
579.0000	81.6239
578.9000	81.7894
578.8000	82.0061
578.7000	82.1831
578.6000	82.3524
578.5000	82.5028
578.4000	82.6155
578.3000	82.7222
578.2000	82.8702
578.1000	82.9734
578.0000	83.0244
577.9000	83.0968
577.8000	83.1028
577.7000	83.0742
577.6000	83.0319
577.5000	82.962
577.4000	82.8312
577.3000	82.7697
577.2000	82.6539
577.1000	82.5441
577.0000	82.4044
576.9000	82.2966
576.8000	82.1228
576.7000	81.9213
576.6000	81.7258
576.5000	81.5251
576.4000	81.3119
576.3000	81.0923
576.2000	80.8482
576.1000	80.616
576.0000	80.3325
575.9000	80.0342
575.8000	79.7484
575.7000	79.4647
575.6000	79.1227
575.5000	78.8358
575.4000	78.5168
575.3000	78.151
575.2000	77.8591
575.1000	77.5911
575.0000	77.2598
574.9000	76.9223
574.8000	76.5995
574.7000	76.2818
574.6000	75.9746
574.5000	75.6411
574.4000	75.3524
574.3000	75.0907
574.2000	74.8204
574.1000	74.5254
574.0000	74.2601
573.9000	73.9866
573.8000	73.7251
573.7000	73.5083
573.6000	73.2866
573.5000	73.0509
573.4000	72.815
573.3000	72.6254
573.2000	72.452
573.1000	72.285
573.0000	72.1821
572.9000	72.0457
572.8000	71.9298
572.7000	71.8199
572.6000	71.7663
572.5000	71.6652
572.4000	71.6331
572.3000	71.6139
572.2000	71.6487
572.1000	71.6331
572.0000	71.6692
571.9000	71.7097
571.8000	71.7689
571.7000	71.8538
571.6000	71.9644
571.5000	72.093
571.4000	72.201
571.3000	72.3693
571.2000	72.5516
571.1000	72.7493
571.0000	72.9093
570.9000	73.1498
570.8000	73.3661
570.7000	73.6002
570.6000	73.8279
570.5000	74.1102
570.4000	74.372
570.3000	74.6159
570.2000	74.9177
570.1000	75.2119
570.0000	75.4933
569.9000	75.7915
569.8000	76.1053
569.7000	76.4003
569.6000	76.721
569.5000	76.9892
569.4000	77.3222
569.3000	77.6707
569.2000	78.0073
569.1000	78.3275
569.0000	78.619
568.9000	78.9575
568.8000	79.2473
568.7000	79.5792
568.6000	79.848
568.5000	80.1261
568.4000	80.4152
568.3000	80.6689
568.2000	80.8965
568.1000	81.1296
568.0000	81.3503
567.9000	81.5766
567.8000	81.758
567.7000	81.905
567.6000	82.021
567.5000	82.0909
567.4000	82.1759
567.3000	82.2142
567.2000	82.2645
567.1000	82.3081
567.0000	82.3852
566.9000	82.3556
566.8000	82.3356
566.7000	82.2423
566.6000	82.179
566.5000	82.0855
566.4000	81.9399
566.3000	81.8565
566.2000	81.6957
566.1000	81.5193
566.0000	81.3635
565.9000	81.1915
565.8000	80.9904
565.7000	80.7597
565.6000	80.5031
565.5000	80.2082
565.4000	79.8901
565.3000	79.6126
565.2000	79.2559
565.1000	79.026
565.0000	78.6891
564.9000	78.3486
564.8000	78.0017
564.7000	77.6007
564.6000	77.2635
564.5000	76.8504
564.4000	76.4854
564.3000	76.1232
564.2000	75.7455
564.1000	75.4504
564.0000	75.1348
563.9000	74.8184
563.8000	74.5043
563.7000	74.1871
563.6000	73.9269
563.5000	73.5713
563.4000	73.2849
563.3000	72.9883
563.2000	72.7761
563.1000	72.5654
563.0000	72.2955
562.9000	72.1026
562.8000	71.8579
562.7000	71.6929
562.6000	71.5659
562.5000	71.3688
562.4000	71.2276
562.3000	71.1126
562.2000	70.9908
562.1000	70.9061
562.0000	70.8292
561.9000	70.7909
561.8000	70.7734
561.7000	70.8233
561.6000	70.7654
561.5000	70.7766
561.4000	70.7993
561.3000	70.8728
561.2000	70.9755
561.1000	71.065
561.0000	71.1534
560.9000	71.3076
560.8000	71.4262
560.7000	71.6069
560.6000	71.7768
560.5000	71.9745
560.4000	72.1698
560.3000	72.3939
560.2000	72.6146
560.1000	72.8403
560.0000	73.1644
559.9000	73.4156
559.8000	73.782
559.7000	74.1041
559.6000	74.4271
559.5000	74.7511
559.4000	75.0721
559.3000	75.4059
559.2000	75.7357
559.1000	76.0794
559.0000	76.4783
558.9000	76.7926
558.8000	77.1709
558.7000	77.5327
558.6000	77.8765
558.5000	78.2432
558.4000	78.5478
558.3000	78.8793
558.2000	79.1641
558.1000	79.4636
558.0000	79.7793
557.9000	80.0393
557.8000	80.283
557.7000	80.466
557.6000	80.7212
557.5000	80.8874
557.4000	81.0404
557.3000	81.212
557.2000	81.2959
557.1000	81.4061
557.0000	81.4986
556.9000	81.5105
556.8000	81.507
556.7000	81.5565
556.6000	81.5991
556.5000	81.528
556.4000	81.4845
556.3000	81.3958
556.2000	81.3144
556.1000	81.1875
556.0000	81.0348
555.9000	80.8811
555.8000	80.6934
555.7000	80.4645
555.6000	80.2498
555.5000	79.9818
555.4000	79.7177
555.3000	79.4424
555.2000	79.1962
555.1000	78.8173
555.0000	78.4509
554.9000	78.1443
554.8000	77.7836
554.7000	77.4246
554.6000	77.0876
554.5000	76.7356
554.4000	76.3485
554.3000	75.9739
554.2000	75.6039
554.1000	75.2563
554.0000	74.898
553.9000	74.5097
553.8000	74.1194
553.7000	73.7506
553.6000	73.417
553.5000	73.1192
553.4000	72.7989
553.3000	72.4948
553.2000	72.157
553.1000	71.8588
553.0000	71.5713
552.9000	71.3087
552.8000	71.0841
552.7000	70.8377
552.6000	70.6258
552.5000	70.453
552.4000	70.2973
552.3000	70.2047
552.2000	70.1135
552.1000	70.0145
552.0000	69.9201
551.9000	69.8392
551.8000	69.8084
551.7000	69.7608
551.6000	69.7833
551.5000	69.822
551.4000	69.8516
551.3000	69.925
551.2000	69.9864
551.1000	70.0841
551.0000	70.1822
550.9000	70.3384
550.8000	70.4718
550.7000	70.6013
550.6000	70.8207
550.5000	71.0334
550.4000	71.2352
550.3000	71.5122
550.2000	71.7563
550.1000	72.0682
550.0000	72.3434
549.9000	72.6652
549.8000	72.9944
549.7000	73.3516
549.6000	73.7102
549.5000	74.0592
549.4000	74.44
549.3000	74.7736
549.2000	75.1635
549.1000	75.5569
549.0000	75.9144
548.9000	76.3052
548.8000	76.7023
548.7000	77.0902
548.6000	77.4287
548.5000	77.7633
548.4000	78.1387
548.3000	78.4732
548.2000	78.7534
548.1000	79.0275
548.0000	79.2989
547.9000	79.5801
547.8000	79.7884
547.7000	80.0088
547.6000	80.2249
547.5000	80.4177
547.4000	80.5521
547.3000	80.6991
547.2000	80.7917
547.1000	80.861
547.0000	80.9189
546.9000	80.9322
546.8000	80.884
546.7000	80.8783
546.6000	80.9083
546.5000	80.8049
546.4000	80.7278
546.3000	80.6207
546.2000	80.5365
546.1000	80.3923
546.0000	80.1836
545.9000	79.9184
545.8000	79.6925
545.7000	79.4295
545.6000	79.1077
545.5000	78.7927
545.4000	78.4769
545.3000	78.1578
545.2000	77.8331
545.1000	77.4537
545.0000	77.0051
544.9000	76.619
544.8000	76.2416
544.7000	75.834
544.6000	75.4175
544.5000	75.0694
544.4000	74.7162
544.3000	74.3679
544.2000	74.0029
544.1000	73.6346
544.0000	73.3037
543.9000	72.929
543.8000	72.6267
543.7000	72.2679
543.6000	71.9264
543.5000	71.6075
543.4000	71.3262
543.3000	71.0724
543.2000	70.8022
543.1000	70.5985
543.0000	70.3561
542.9000	70.1083
542.8000	69.866
542.7000	69.7016
542.6000	69.5202
542.5000	69.3791
542.4000	69.2562
542.3000	69.1328
542.2000	69.0374
542.1000	69.0028
542.0000	69.0244
541.9000	69.0329
541.8000	69.101
541.7000	69.1507
541.6000	69.2344
541.5000	69.3143
541.4000	69.4101
541.3000	69.5257
541.2000	69.721
541.1000	69.8909
541.0000	70.0733
540.9000	70.3016
540.8000	70.5721
540.7000	70.8836
540.6000	71.1488
540.5000	71.4632
540.4000	71.7487
540.3000	72.0257
540.2000	72.3664
540.1000	72.7131
540.0000	73.0864
539.9000	73.4233
539.8000	73.8208
539.7000	74.1872
539.6000	74.5088
539.5000	74.8512
539.4000	75.2538
539.3000	75.6045
539.2000	75.9878
539.1000	76.3881
539.0000	76.7505
538.9000	77.1165
538.8000	77.4623
538.7000	77.825
538.6000	78.0616
538.5000	78.3602
538.4000	78.6338
538.3000	78.9202
538.2000	79.1489
538.1000	79.4134
538.0000	79.6365
537.9000	79.8585
537.8000	80.0413
537.7000	80.1816
537.6000	80.2548
537.5000	80.2739
537.4000	80.2989
537.3000	80.2841
537.2000	80.258
537.1000	80.2083
537.0000	80.1636
536.9000	80.0688
536.8000	79.8958
536.7000	79.751
536.6000	79.6016
536.5000	79.3464
536.4000	79.1161
536.3000	78.8155
536.2000	78.4971
536.1000	78.163
536.0000	77.838
535.9000	77.5259
535.8000	77.195
535.7000	76.854
535.6000	76.4824
535.5000	76.0939
535.4000	75.7072
535.3000	75.2777
535.2000	74.8791
535.1000	74.465
535.0000	74.0343
534.9000	73.6736
534.8000	73.3316
534.7000	72.9952
534.6000	72.6109
534.5000	72.2576
534.4000	71.8849
534.3000	71.5684
534.2000	71.2537
534.1000	70.9299
534.0000	70.6267
533.9000	70.3582
533.8000	70.1091
533.7000	69.9248
533.6000	69.7121
533.5000	69.4748
533.4000	69.3222
533.3000	69.1575
533.2000	68.9717
533.1000	68.8074
533.0000	68.7379
532.9000	68.7018
532.8000	68.693
532.7000	68.6243
532.6000	68.6342
532.5000	68.6344
532.4000	68.6698
532.3000	68.7225
532.2000	68.8323
532.1000	68.8977
532.0000	69.0483
531.9000	69.2607
531.8000	69.4712
531.7000	69.6761
531.6000	69.9127
531.5000	70.2157
531.4000	70.4867
531.3000	70.7244
531.2000	70.9918
531.1000	71.295
531.0000	71.6049
530.9000	71.981
530.8000	72.3742
530.7000	72.7877
530.6000	73.1728
530.5000	73.5608
530.4000	73.9775
530.3000	74.373
530.2000	74.751
530.1000	75.1568
530.0000	75.5256
529.9000	75.9372
529.8000	76.3077
529.7000	76.7693
529.6000	77.1842
529.5000	77.571
529.4000	77.9178
529.3000	78.2193
529.2000	78.4797
529.1000	78.7382
529.0000	78.982
528.9000	79.2198
528.8000	79.4369
528.7000	79.6021
528.6000	79.7262
528.5000	79.8542
528.4000	79.9651
528.3000	80.0223
528.2000	80.0579
528.1000	80.0262
528.0000	79.9908
527.9000	79.9914
527.8000	79.931
527.7000	79.8387
527.6000	79.7905
527.5000	79.6179
527.4000	79.4616
527.3000	79.2234
527.2000	78.9445
527.1000	78.6718
527.0000	78.4016
526.9000	78.1284
526.8000	77.8078
526.7000	77.4608
526.6000	77.1105
526.5000	76.6905
526.4000	76.2946
526.3000	75.8536
526.2000	75.4347
526.1000	75.0049
526.0000	74.522
525.9000	74.1177
525.8000	73.6622
525.7000	73.3308
525.6000	72.9713
525.5000	72.5837
525.4000	72.1938
525.3000	71.76
525.2000	71.385
525.1000	71.0167
525.0000	70.6997
524.9000	70.4452
524.8000	70.1676
524.7000	69.9022
524.6000	69.6449
524.5000	69.438
524.4000	69.2392
524.3000	69.0636
524.2000	68.9472
524.1000	68.8047
524.0000	68.6578
523.9000	68.5724
523.8000	68.5427
523.7000	68.5232
523.6000	68.5342
523.5000	68.5462
523.4000	68.602
523.3000	68.6772
523.2000	68.8092
523.1000	68.9212
523.0000	69.0914
522.9000	69.2273
522.8000	69.4846
522.7000	69.7058
522.6000	69.9439
522.5000	70.2083
522.4000	70.5368
522.3000	70.8462
522.2000	71.1789
522.1000	71.5442
522.0000	71.9349
521.9000	72.3967
521.8000	72.7894
521.7000	73.1953
521.6000	73.6447
521.5000	74.0977
521.4000	74.5226
521.3000	75.0174
521.2000	75.3907
521.1000	75.8466
521.0000	76.2546
520.9000	76.6433
520.8000	76.9892
520.7000	77.4075
520.6000	77.7653
520.5000	78.1335
520.4000	78.4744
520.3000	78.7296
520.2000	79.0215
520.1000	79.2737
520.0000	79.4715
519.9000	79.6329
519.8000	79.7846
519.7000	79.9515
519.6000	80.0117
519.5000	80.034
519.4000	80.0603
519.3000	80.0677
519.2000	80.0279
519.1000	80.0157
519.0000	79.9105
518.9000	79.7202
518.8000	79.5894
518.7000	79.4415
518.6000	79.2475
518.5000	78.9829
518.4000	78.7599
518.3000	78.5298
518.2000	78.2408
518.1000	77.8689
518.0000	77.5319
517.9000	77.1241
517.8000	76.787
517.7000	76.406
517.6000	76.0187
517.5000	75.5771
517.4000	75.1712
517.3000	74.7874
517.2000	74.34
517.1000	73.9022
517.0000	73.4976
516.9000	73.1436
516.8000	72.7391
516.7000	72.328
516.6000	71.9593
516.5000	71.6391
516.4000	71.3213
516.3000	71.071
516.2000	70.7772
516.1000	70.4516
516.0000	70.1648
515.9000	69.9132
515.8000	69.7078
515.7000	69.5466
515.6000	69.4234
515.5000	69.2969
515.4000	69.1528
515.3000	69.0717
515.2000	68.9753
515.1000	68.9435
515.0000	68.9279
514.9000	68.9456
514.8000	68.9029
514.7000	68.9322
514.6000	69.0156
514.5000	69.1703
514.4000	69.3324
514.3000	69.5433
514.2000	69.7676
514.1000	70.0172
514.0000	70.2885
513.9000	70.5802
513.8000	70.9262
513.7000	71.2199
513.6000	71.5804
513.5000	71.9577
513.4000	72.3761
513.3000	72.7792
513.2000	73.2619
513.1000	73.7091
513.0000	74.1837
512.9000	74.6519
512.8000	75.1108
512.7000	75.5494
512.6000	75.9521
512.5000	76.3411
512.4000	76.7163
512.3000	77.108
512.2000	77.4783
512.1000	77.8818
512.0000	78.276
511.9000	78.6284
511.8000	78.9257
511.7000	79.2157
511.6000	79.4899
511.5000	79.7034
511.4000	79.8228
511.3000	79.9616
511.2000	80.1039
511.1000	80.2299
511.0000	80.3012
510.9000	80.3257
510.8000	80.2912
510.7000	80.219
510.6000	80.1182
510.5000	79.9972
510.4000	79.8183
510.3000	79.5915
510.2000	79.3712
510.1000	79.1264
510.0000	78.8407
509.9000	78.5441
509.8000	78.2607
509.7000	77.9005
509.6000	77.5292
509.5000	77.1208
509.4000	76.7176
509.3000	76.2944
509.2000	75.9317
509.1000	75.4982
509.0000	75.0632
508.9000	74.6585
508.8000	74.216
508.7000	73.8386
508.6000	73.4321
508.5000	72.9915
508.4000	72.545
508.3000	72.1677
508.2000	71.7902
508.1000	71.4831
508.0000	71.1606
507.9000	70.8465
507.8000	70.5544
507.7000	70.325
507.6000	70.0755
507.5000	69.9212
507.4000	69.7669
507.3000	69.6079
507.2000	69.5536
507.1000	69.4357
507.0000	69.3674
506.9000	69.3354
506.8000	69.3652
506.7000	69.4231
506.6000	69.5165
506.5000	69.6064
506.4000	69.7132
506.3000	69.8912
506.2000	70.1318
506.1000	70.3243
506.0000	70.5708
505.9000	70.8403
505.8000	71.2134
505.7000	71.5329
505.6000	71.8577
505.5000	72.2801
505.4000	72.7008
505.3000	73.1351
505.2000	73.5755
505.1000	74.0408
505.0000	74.4603
504.9000	74.8729
504.8000	75.3233
504.7000	75.7702
504.6000	76.1415
504.5000	76.6171
504.4000	77.0799
504.3000	77.5041
504.2000	77.8893
504.1000	78.3059
504.0000	78.6517
503.9000	78.9862
503.8000	79.3275
503.7000	79.6018
503.6000	79.8961
503.5000	80.0648
503.4000	80.2588
503.3000	80.4633
503.2000	80.5984
503.1000	80.6993
503.0000	80.8355
502.9000	80.872
502.8000	80.7758
502.7000	80.7114
502.6000	80.6026
502.5000	80.4724
502.4000	80.34
502.3000	80.0977
502.2000	79.837
502.1000	79.6374
502.0000	79.3108
501.9000	79.0452
501.8000	78.7132
501.7000	78.3018
501.6000	77.9082
501.5000	77.5375
501.4000	77.1158
501.3000	76.732
501.2000	76.3494
501.1000	75.9227
501.0000	75.4545
500.9000	75.0158
500.8000	74.5879
500.7000	74.1844
500.6000	73.7831
500.5000	73.3386
500.4000	72.9379
500.3000	72.5138
500.2000	72.1911
500.1000	71.88
500.0000	71.5946
499.9000	71.2331
499.8000	70.9838
499.7000	70.6918
499.6000	70.5008
499.5000	70.3571
499.4000	70.2544
499.3000	70.1359
499.2000	70.0931
499.1000	70.0865
499.0000	70.0645
498.9000	70.1327
498.8000	70.2578
498.7000	70.3671
498.6000	70.5017
498.5000	70.701
498.4000	70.9085
498.3000	71.1832
498.2000	71.4125
498.1000	71.6987
498.0000	71.9881
497.9000	72.3202
497.8000	72.664
497.7000	73.0392
497.6000	73.4068
497.5000	73.7776
497.4000	74.214
497.3000	74.6361
497.2000	75.009
497.1000	75.4977
497.0000	75.9507
496.9000	76.4296
496.8000	76.8494
496.7000	77.2329
496.6000	77.6943
496.5000	78.1431
496.4000	78.5697
496.3000	78.8922
496.2000	79.235
496.1000	79.5846
496.0000	79.8368
495.9000	80.1365
495.8000	80.3614
495.7000	80.6065
495.6000	80.8148
495.5000	80.8971
495.4000	80.9747
495.3000	80.9988
495.2000	81.0586
495.1000	81.1038
495.0000	80.9533
494.9000	80.8454
494.8000	80.6766
494.7000	80.5167
494.6000	80.2823
494.5000	80.0122
494.4000	79.7803
494.3000	79.4683
494.2000	79.1523
494.1000	78.7815
494.0000	78.4359
493.9000	78.0313
493.8000	77.5902
493.7000	77.152
493.6000	76.639
493.5000	76.1679
493.4000	75.7769
493.3000	75.2911
493.2000	74.8687
493.1000	74.469
493.0000	74.044
492.9000	73.6723
492.8000	73.3041
492.7000	72.9426
492.6000	72.5925
492.5000	72.2523
492.4000	71.9473
492.3000	71.7082
492.2000	71.4761
492.1000	71.2804
492.0000	71.1895
491.9000	71.0839
491.8000	70.9693
491.7000	70.9537
491.6000	70.9231
491.5000	70.9193
491.4000	70.9815
491.3000	71.0242
491.2000	71.1272
491.1000	71.2327
491.0000	71.3979
490.9000	71.585
490.8000	71.8061
490.7000	72.0663
490.6000	72.3629
490.5000	72.6456
490.4000	72.9805
490.3000	73.3437
490.2000	73.7484
490.1000	74.1077
490.0000	74.5298
489.9000	74.9687
489.8000	75.3959
489.7000	75.8402
489.6000	76.2969
489.5000	76.7775
489.4000	77.2623
489.3000	77.6927
489.2000	78.105
489.1000	78.5156
489.0000	78.9156
488.9000	79.3075
488.8000	79.6205
488.7000	79.9456
488.6000	80.2677
488.5000	80.5406
488.4000	80.7944
488.3000	80.9643
488.2000	81.1266
488.1000	81.284
488.0000	81.253
487.9000	81.2785
487.8000	81.2589
487.7000	81.1813
487.6000	81.0875
487.5000	80.9543
487.4000	80.8177
487.3000	80.6241
487.2000	80.3745
487.1000	80.0529
487.0000	79.7309
486.9000	79.3773
486.8000	78.978
486.7000	78.6248
486.6000	78.2305
486.5000	77.8084
486.4000	77.4119
486.3000	76.9687
486.2000	76.4907
486.1000	76.0923
486.0000	75.6834
485.9000	75.2867
485.8000	74.7982
485.7000	74.3863
485.6000	73.9834
485.5000	73.6157
485.4000	73.2612
485.3000	72.9707
485.2000	72.6297
485.1000	72.3666
485.0000	72.1089
484.9000	71.8401
484.8000	71.6717
484.7000	71.5307
484.6000	71.4231
484.5000	71.3241
484.4000	71.2636
484.3000	71.236
484.2000	71.2996
484.1000	71.3642
484.0000	71.5145
483.9000	71.6783
483.8000	71.824
483.7000	72.008
483.6000	72.2603
483.5000	72.482
483.4000	72.8141
483.3000	73.1305
483.2000	73.4272
483.1000	73.7673
483.0000	74.1618
482.9000	74.5602
482.8000	74.9883
482.7000	75.4293
482.6000	75.8496
482.5000	76.3033
482.4000	76.7033
482.3000	77.1103
482.2000	77.5666
482.1000	77.9958
482.0000	78.4143
481.9000	78.7991
481.8000	79.1583
481.7000	79.5142
481.6000	79.8672
481.5000	80.1863
481.4000	80.429
481.3000	80.6013
481.2000	80.8495
481.1000	80.9661
481.0000	81.0868
480.9000	81.1393
480.8000	81.2093
480.7000	81.1731
480.6000	81.0721
480.5000	80.9321
480.4000	80.8121
480.3000	80.5966
480.2000	80.3574
480.1000	80.0988
480.0000	79.7505
479.9000	79.4455
479.8000	79.1227
479.7000	78.8271
479.6000	78.3484
479.5000	77.9518
479.4000	77.5099
479.3000	77.0312
479.2000	76.5442
479.1000	76.091
479.0000	75.673
478.9000	75.2463
478.8000	74.8116
478.7000	74.4382
478.6000	74.0352
478.5000	73.6795
478.4000	73.3874
478.3000	72.9984
478.2000	72.6967
478.1000	72.3622
478.0000	72.1255
477.9000	71.8443
477.8000	71.6324
477.7000	71.5435
477.6000	71.3733
477.5000	71.3127
477.4000	71.2653
477.3000	71.2583
477.2000	71.2845
477.1000	71.3108
477.0000	71.4169
476.9000	71.5338
476.8000	71.6971
476.7000	71.9106
476.6000	72.0903
476.5000	72.3705
476.4000	72.6461
476.3000	73.0132
476.2000	73.3626
476.1000	73.6859
476.0000	74.1653
475.9000	74.5983
475.8000	75.0611
475.7000	75.5144
475.6000	75.9946
475.5000	76.4767
475.4000	76.9087
475.3000	77.3753
475.2000	77.823
475.1000	78.2719
475.0000	78.6886
474.9000	79.0635
474.8000	79.4445
474.7000	79.7924
474.6000	80.1371
474.5000	80.37
474.4000	80.5612
474.3000	80.7297
474.2000	80.8249
474.1000	80.8662
474.0000	80.8423
473.9000	80.8711
473.8000	80.823
473.7000	80.6726
473.6000	80.5407
473.5000	80.3455
473.4000	80.1369
473.3000	79.936
473.2000	79.6352
473.1000	79.2998
473.0000	78.9036
472.9000	78.5507
472.8000	78.0908
472.7000	77.6075
472.6000	77.1495
472.5000	76.7297
472.4000	76.3127
472.3000	75.7885
472.2000	75.3072
472.1000	74.8866
472.0000	74.428
471.9000	73.9528
471.8000	73.5287
471.7000	73.101
471.6000	72.6924
471.5000	72.3269
471.4000	72.0389
471.3000	71.7695
471.2000	71.5554
471.1000	71.3914
471.0000	71.2317
470.9000	71.101
470.8000	70.9816
470.7000	70.9307
470.6000	70.9426
470.5000	70.9834
470.4000	71.0349
470.3000	71.2144
470.2000	71.3679
470.1000	71.5671
470.0000	71.8129
469.9000	72.0438
469.8000	72.3233
469.7000	72.6262
469.6000	72.9706
469.5000	73.3398
469.4000	73.7304
469.3000	74.1341
469.2000	74.5734
469.1000	75.0267
469.0000	75.4683
468.9000	75.9286
468.8000	76.4103
468.7000	76.8555
468.6000	77.2706
468.5000	77.6595
468.4000	78.0631
468.3000	78.4566
468.2000	78.8243
468.1000	79.1873
468.0000	79.4849
467.9000	79.7881
467.8000	80.0022
467.7000	80.1638
467.6000	80.3023
467.5000	80.3645
467.4000	80.3405
467.3000	80.2637
467.2000	80.1915
467.1000	79.9946
467.0000	79.8196
466.9000	79.6276
466.8000	79.3727
466.7000	79.055
466.6000	78.6951
466.5000	78.2443
466.4000	77.8062
466.3000	77.2875
466.2000	76.8168
466.1000	76.3724
466.0000	75.8476
465.9000	75.3494
465.8000	74.8918
465.7000	74.3846
465.6000	73.9041
465.5000	73.4487
465.4000	73.0105
465.3000	72.6021
465.2000	72.196
465.1000	71.8436
465.0000	71.4625
464.9000	71.1716
464.8000	70.8694
464.7000	70.6597
464.6000	70.475
464.5000	70.2957
464.4000	70.185
464.3000	70.0862
464.2000	70.0298
464.1000	70.0577
464.0000	70.0634
463.9000	70.1786
463.8000	70.313
463.7000	70.4391
463.6000	70.6892
463.5000	70.9802
463.4000	71.2777
463.3000	71.6119
463.2000	72.0009
463.1000	72.3656
463.0000	72.7316
462.9000	73.1434
462.8000	73.5932
462.7000	74.0505
462.6000	74.5281
462.5000	74.9995
462.4000	75.4818
462.3000	75.9622
462.2000	76.3893
462.1000	76.8599
462.0000	77.2
461.9000	77.534
461.8000	77.8859
461.7000	78.2082
461.6000	78.4716
461.5000	78.7185
461.4000	78.9118
461.3000	79.0435
461.2000	79.1377
461.1000	79.1921
461.0000	79.2037
460.9000	79.0736
460.8000	78.9632
460.7000	78.7484
460.6000	78.5567
460.5000	78.2542
460.4000	77.9446
460.3000	77.5963
460.2000	77.1919
460.1000	76.7511
460.0000	76.28
459.9000	75.8049
459.8000	75.2912
459.7000	74.8622
459.6000	74.3084
459.5000	73.7965
459.4000	73.2962
459.3000	72.8622
459.2000	72.3525
459.1000	71.8948
459.0000	71.4396
458.9000	70.9945
458.8000	70.6195
458.7000	70.2779
458.6000	69.9687
458.5000	69.7036
458.4000	69.4943
458.3000	69.2842
458.2000	69.1867
458.1000	69.0519
458.0000	68.9942
457.9000	69.0218
457.8000	69.0567
457.7000	69.1502
457.6000	69.3026
457.5000	69.4845
457.4000	69.7324
457.3000	69.9952
457.2000	70.3484
457.1000	70.6547
457.0000	71.0753
456.9000	71.472
456.8000	71.9045
456.7000	72.3688
456.6000	72.8191
456.5000	73.3128
456.4000	73.8508
456.3000	74.3422
456.2000	74.7506
456.1000	75.2466
456.0000	75.718
455.9000	76.1688
455.8000	76.5275
455.7000	76.9697
455.6000	77.3303
455.5000	77.6471
455.4000	77.8503
455.3000	78.0388
455.2000	78.2233
455.1000	78.3036
455.0000	78.3554
454.9000	78.3005
454.8000	78.2272
454.7000	78.0829
454.6000	77.9537
454.5000	77.6388
454.4000	77.3279
454.3000	76.9416
454.2000	76.5752
454.1000	76.1239
454.0000	75.6123
453.9000	75.1146
453.8000	74.6136
453.7000	74.1057
453.6000	73.5362
453.5000	73.0423
453.4000	72.5087
453.3000	72.009
453.2000	71.5047
453.1000	70.9923
453.0000	70.5055
452.9000	70.0696
452.8000	69.6624
452.7000	69.3099
452.6000	68.9369
452.5000	68.6408
452.4000	68.3955
452.3000	68.2019
452.2000	68.0684
452.1000	67.9619
452.0000	67.9066
451.9000	67.8574
451.8000	67.9205
451.7000	68.0184
451.6000	68.1556
451.5000	68.3945
451.4000	68.639
451.3000	69.0147
451.2000	69.3873
451.1000	69.7761
451.0000	70.2451
450.9000	70.6918
450.8000	71.1629
450.7000	71.6608
450.6000	72.1697
450.5000	72.6941
450.4000	73.2725
450.3000	73.8457
450.2000	74.3401
450.1000	74.8282
450.0000	75.316
449.9000	75.7157
449.8000	76.1348
449.7000	76.441
449.6000	76.7078
449.5000	76.9351
449.4000	77.1598
449.3000	77.2807
449.2000	77.3119
449.1000	77.3139
449.0000	77.2756
448.9000	77.1544
448.8000	76.992
448.7000	76.7508
448.6000	76.4151
448.5000	76.0191
448.4000	75.6062
448.3000	75.2267
448.2000	74.7378
448.1000	74.2553
448.0000	73.6875
447.9000	73.1945
447.8000	72.631
447.7000	72.0867
447.6000	71.5542
447.5000	70.9973
447.4000	70.4427
447.3000	69.9324
447.2000	69.4021
447.1000	68.9202
447.0000	68.5753
446.9000	68.1852
446.8000	67.8173
446.7000	67.4855
446.6000	67.2879
446.5000	67.0563
446.4000	66.9697
446.3000	66.8761
446.2000	66.8609
446.1000	66.932
446.0000	67.0122
445.9000	67.1344
445.8000	67.3719
445.7000	67.6079
445.6000	67.9027
445.5000	68.2663
445.4000	68.6043
445.3000	69.0955
445.2000	69.5901
445.1000	70.1341
445.0000	70.618
444.9000	71.157
444.8000	71.683
444.7000	72.2058
444.6000	72.712
444.5000	73.2272
444.4000	73.7626
444.3000	74.2678
444.2000	74.6924
444.1000	75.1465
444.0000	75.486
443.9000	75.8281
443.8000	76.1022
443.7000	76.2624
443.6000	76.368
443.5000	76.4111
443.4000	76.4135
443.3000	76.3341
443.2000	76.182
443.1000	75.9853
443.0000	75.7298
442.9000	75.4567
442.8000	75.0705
442.7000	74.7298
442.6000	74.2277
442.5000	73.6789
442.4000	73.0965
442.3000	72.4943
442.2000	71.9049
442.1000	71.3055
442.0000	70.7574
441.9000	70.132
441.8000	69.5954
441.7000	69.058
441.6000	68.5535
441.5000	68.0805
441.4000	67.63
441.3000	67.141
441.2000	66.776
441.1000	66.4226
441.0000	66.1534
440.9000	65.9643
440.8000	65.895
440.7000	65.8658
440.6000	65.8702
440.5000	65.9463
440.4000	66.0587
440.3000	66.2537
440.2000	66.4566
440.1000	66.7662
440.0000	67.1625
439.9000	67.5595
439.8000	68.0189
439.7000	68.57
439.6000	69.1342
439.5000	69.6574
439.4000	70.3071
439.3000	70.9267
439.2000	71.5512
439.1000	72.0864
439.0000	72.6776
438.9000	73.238
438.8000	73.776
438.7000	74.2618
438.6000	74.7677
438.5000	75.144
438.4000	75.4265
438.3000	75.6637
438.2000	75.858
438.1000	75.9517
438.0000	76.0542
437.9000	76.0548
437.8000	75.914
437.7000	75.7525
437.6000	75.5616
437.5000	75.3391
437.4000	74.9891
437.3000	74.5884
437.2000	74.1166
437.1000	73.653
437.0000	73.0512
436.9000	72.5012
436.8000	71.936
436.7000	71.3598
436.6000	70.7659
436.5000	70.1775
436.4000	69.5352
436.3000	69.0386
436.2000	68.5488
436.1000	68.0177
436.0000	67.5199
435.9000	67.0116
435.8000	66.6351
435.7000	66.3042
435.6000	66.0584
435.5000	65.8695
435.4000	65.7933
435.3000	65.7204
435.2000	65.7404
435.1000	65.8026
435.0000	65.9517
434.9000	66.1517
434.8000	66.4214
434.7000	66.7836
434.6000	67.1299
434.5000	67.5957
434.4000	68.0853
434.3000	68.6521
434.2000	69.2194
434.1000	69.7567
434.0000	70.3255
433.9000	70.889
433.8000	71.452
433.7000	72.0714
433.6000	72.6008
433.5000	73.1926
433.4000	73.7269
433.3000	74.1833
433.2000	74.5589
433.1000	74.7957
433.0000	75.1099
432.9000	75.2746
432.8000	75.3944
432.7000	75.5432
432.6000	75.4937
432.5000	75.4853
432.4000	75.3232
432.3000	75.1177
432.2000	74.8308
432.1000	74.4588
432.0000	74.07
431.9000	73.577
431.8000	72.9961
431.7000	72.4299
431.6000	71.8972
431.5000	71.3359
431.4000	70.6936
431.3000	70.1253
431.2000	69.4907
431.1000	68.9052
431.0000	68.3601
430.9000	67.8889
430.8000	67.4759
430.7000	67.0469
430.6000	66.6473
430.5000	66.3303
430.4000	66.0432
430.3000	65.859
430.2000	65.7311
430.1000	65.6729
430.0000	65.5791
429.9000	65.6671
429.8000	65.8568
429.7000	66.0676
429.6000	66.3749
429.5000	66.6894
429.4000	67.1045
429.3000	67.5208
429.2000	67.9307
429.1000	68.4663
429.0000	69.0585
428.9000	69.677
428.8000	70.2905
428.7000	70.8811
428.6000	71.5363
428.5000	72.1764
428.4000	72.8135
428.3000	73.3339
428.2000	73.7893
428.1000	74.2532
428.0000	74.6675
427.9000	74.9223
427.8000	75.1513
427.7000	75.2287
427.6000	75.3527
427.5000	75.3318
427.4000	75.2199
427.3000	75.0517
427.2000	74.7887
427.1000	74.527
427.0000	74.0917
426.9000	73.6443
426.8000	73.1577
426.7000	72.5901
426.6000	72.0671
426.5000	71.5005
426.4000	70.8842
426.3000	70.3041
426.2000	69.7632
426.1000	69.3045
426.0000	68.7943
425.9000	68.2904
425.8000	67.8154
425.7000	67.3704
425.6000	67.0606
425.5000	66.7177
425.4000	66.4867
425.3000	66.2807
425.2000	66.1988
425.1000	66.1749
425.0000	66.1783
424.9000	66.2562
424.8000	66.4
424.7000	66.6599
424.6000	66.9586
424.5000	67.2821
424.4000	67.6847
424.3000	68.1695
424.2000	68.7192
424.1000	69.2843
424.0000	69.8402
423.9000	70.4377
423.8000	71.0799
423.7000	71.6863
423.6000	72.288
423.5000	72.9208
423.4000	73.4737
423.3000	74.0027
423.2000	74.4877
423.1000	74.9281
423.0000	75.1707
422.9000	75.443
422.8000	75.6218
422.7000	75.6803
422.6000	75.7156
422.5000	75.6041
422.4000	75.3941
422.3000	75.1304
422.2000	74.8023
422.1000	74.449
422.0000	73.9631
421.9000	73.4197
421.8000	72.9216
421.7000	72.304
421.6000	71.7269
421.5000	71.0625
421.4000	70.4997
421.3000	69.8739
421.2000	69.3381
421.1000	68.7874
421.0000	68.275
420.9000	67.8788
420.8000	67.5331
420.7000	67.2083
420.6000	66.9028
420.5000	66.7381
420.4000	66.686
420.3000	66.6432
420.2000	66.6276
420.1000	66.7377
420.0000	66.898
419.9000	67.1716
419.8000	67.5925
419.7000	67.9529
419.6000	68.4283
419.5000	68.9133
419.4000	69.4695
419.3000	70.0618
419.2000	70.6897
419.1000	71.2643
419.0000	71.8962
418.9000	72.5494
418.8000	73.0557
418.7000	73.5735
418.6000	74.0739
418.5000	74.4876
418.4000	74.8692
418.3000	75.1862
418.2000	75.4388
418.1000	75.6908
418.0000	75.7256
417.9000	75.772
417.8000	75.586
417.7000	75.3629
417.6000	75.0351
417.5000	74.7879
417.4000	74.4572
417.3000	73.9717
417.2000	73.5525
417.1000	72.9627
417.0000	72.3059
416.9000	71.744
416.8000	71.1225
416.7000	70.4373
416.6000	69.8374
416.5000	69.2777
416.4000	68.8404
416.3000	68.3834
416.2000	68.023
416.1000	67.7506
416.0000	67.5329
415.9000	67.3106
415.8000	67.1308
415.7000	67.0587
415.6000	67.0169
415.5000	67.151
415.4000	67.417
415.3000	67.674
415.2000	68.0483
415.1000	68.5283
415.0000	68.9931
414.9000	69.4743
414.8000	69.9764
414.7000	70.522
414.6000	71.1055
414.5000	71.7342
414.4000	72.2964
414.3000	72.8976
414.2000	73.5146
414.1000	74.0924
414.0000	74.6319
413.9000	75.0345
413.8000	75.3002
413.7000	75.6103
413.6000	75.677
413.5000	75.7472
413.4000	75.7356
413.3000	75.6532
413.2000	75.4601
413.1000	75.1358
413.0000	74.7574
412.9000	74.3112
412.8000	73.9016
412.7000	73.3426
412.6000	72.7698
412.5000	72.0902
412.4000	71.4936
412.3000	70.949
412.2000	70.465
412.1000	69.8834
412.0000	69.4929
411.9000	69.0123
411.8000	68.594
411.7000	68.2783
411.6000	68.0685
411.5000	67.9471
411.4000	67.8902
411.3000	67.8639
411.2000	67.8621
411.1000	68.0943
411.0000	68.307
410.9000	68.7058
410.8000	69.1153
410.7000	69.5008
410.6000	69.8846
410.5000	70.3874
410.4000	70.9196
410.3000	71.529
410.2000	72.1368
410.1000	72.6694
410.0000	73.1661
409.9000	73.6874
409.8000	74.1243
409.7000	74.5267
409.6000	74.9659
409.5000	75.2368
409.4000	75.4601
409.3000	75.6125
409.2000	75.6168
409.1000	75.5271
409.0000	75.4428
408.9000	75.2099
408.8000	74.9171
408.7000	74.5696
408.6000	74.1101
408.5000	73.5785
408.4000	73.097
408.3000	72.5669
408.2000	72.0024
408.1000	71.4294
408.0000	70.8592
407.9000	70.2945
407.8000	69.7065
407.7000	69.1932
407.6000	68.8211
407.5000	68.5823
407.4000	68.2807
407.3000	68.159
407.2000	67.9911
407.1000	67.875
407.0000	68.0304
406.9000	68.2157
406.8000	68.4444
406.7000	68.7064
406.6000	69.1367
406.5000	69.567
406.4000	69.9983
406.3000	70.5075
406.2000	71.1008
406.1000	71.6896
406.0000	72.1959
405.9000	72.6586
405.8000	73.2064
405.7000	73.6358
405.6000	74.0736
405.5000	74.5385
405.4000	74.7559
405.3000	74.9414
405.2000	74.9475
405.1000	75.0294
405.0000	74.9006
404.9000	74.719
404.8000	74.4447
404.7000	74.0994
404.6000	73.6878
404.5000	73.2145
404.4000	72.6757
404.3000	72.1641
404.2000	71.5705
404.1000	71.0598
404.0000	70.514
403.9000	69.8874
403.8000	69.3581
403.7000	68.8946
403.6000	68.595
403.5000	68.2914
403.4000	68.0151
403.3000	67.8275
403.2000	67.8123
403.1000	67.8481
403.0000	67.9174
402.9000	68.1072
402.8000	68.4142
402.7000	68.822
402.6000	69.2454
402.5000	69.7158
402.4000	70.1947
402.3000	70.7631
402.2000	71.3714
402.1000	72.0169
402.0000	72.5448
401.9000	72.9656
401.8000	73.4665
401.7000	73.9049
401.6000	74.1945
401.5000	74.3354
401.4000	74.5286
401.3000	74.543
401.2000	74.4558
401.1000	74.2964
401.0000	74.0191
400.9000	73.693
400.8000	73.3165
400.7000	72.879
400.6000	72.3336
400.5000	71.6769
400.4000	71.0378
400.3000	70.4615
400.2000	69.8668
400.1000	69.3169
400.0000	68.6732
399.9000	68.2253
399.8000	67.8054
399.7000	67.5331
399.6000	67.303
399.5000	67.0832
399.4000	67.0107
399.3000	67.0474
399.2000	67.1736
399.1000	67.3369
399.0000	67.58
398.9000	67.9323
398.8000	68.4075
398.7000	68.8589
398.6000	69.3592
398.5000	69.9203
398.4000	70.5776
398.3000	71.136
398.2000	71.7238
398.1000	72.1223
398.0000	72.5937
397.9000	72.9689
397.8000	73.2337
397.7000	73.3448
397.6000	73.4491
397.5000	73.3942
397.4000	73.2628
397.3000	73.1648
397.2000	72.8123
397.1000	72.4028
397.0000	71.8397
396.9000	71.2308
396.8000	70.6603
396.7000	70.0665
396.6000	69.3974
396.5000	68.8633
396.4000	68.218
396.3000	67.6893
396.2000	67.1678
396.1000	66.7196
396.0000	66.3122
395.9000	66.1279
395.8000	66.0349
395.7000	65.8736
395.6000	65.8717
395.5000	66.0593
395.4000	66.3767
395.3000	66.7627
395.2000	67.1083
395.1000	67.5856
395.0000	68.069
394.9000	68.5538
394.8000	69.112
394.7000	69.6046
394.6000	70.2813
394.5000	70.7921
394.4000	71.2372
394.3000	71.5865
394.2000	71.8189
394.1000	72.0094
394.0000	72.1481
393.9000	72.0793
393.8000	71.9562
393.7000	71.6227
393.6000	71.356
393.5000	70.846
393.4000	70.3354
393.3000	69.7742
393.2000	69.1188
393.1000	68.5268
393.0000	67.8244
392.9000	67.1944
392.8000	66.6225
392.7000	66.1018
392.6000	65.6492
392.5000	65.2648
392.4000	64.9812
392.3000	64.7747
392.2000	64.6657
392.1000	64.7151
392.0000	64.7676
391.9000	65.0439
391.8000	65.3502
391.7000	65.8036
391.6000	66.289
391.5000	66.7819
391.4000	67.3763
391.3000	67.8757
391.2000	68.431
391.1000	68.8802
391.0000	69.3157
390.9000	69.6518
390.8000	69.9721
390.7000	70.1014
390.6000	70.2121
390.5000	70.1769
390.4000	70.0208
390.3000	69.6992
390.2000	69.3608
390.1000	68.7937
390.0000	68.2288
389.9000	67.6388
389.8000	66.9891
389.7000	66.4017
389.6000	65.7646
389.5000	65.2278
389.4000	64.7056
389.3000	64.2829
389.2000	63.8825
389.1000	63.6303
389.0000	63.3415
388.9000	63.2235
388.8000	63.2375
388.7000	63.3718
388.6000	63.6056
388.5000	63.931
388.4000	64.3125
388.3000	64.7365
388.2000	65.2589
388.1000	65.8175
388.0000	66.2794
387.9000	66.73
387.8000	67.1873
387.7000	67.5499
387.6000	67.8519
387.5000	68.0521
387.4000	68.2589
387.3000	68.2502
387.2000	68.13
387.1000	67.8723
387.0000	67.4696
386.9000	67.024
386.8000	66.5707
386.7000	65.9973
386.6000	65.3566
386.5000	64.7022
386.4000	64.1025
386.3000	63.5253
386.2000	62.9614
386.1000	62.603
386.0000	62.2016
385.9000	61.9274
385.8000	61.7735
385.7000	61.7197
385.6000	61.8305
385.5000	62.0129
385.4000	62.2569
385.3000	62.6089
385.2000	62.9776
385.1000	63.4372
385.0000	63.9404
384.9000	64.4403
384.8000	64.9533
384.7000	65.3929
384.6000	65.8
384.5000	65.9892
384.4000	66.1871
384.3000	66.2591
384.2000	66.2443
384.1000	66.1408
384.0000	65.8113
383.9000	65.4365
383.8000	64.9931
383.7000	64.4427
383.6000	63.8288
383.5000	63.2187
383.4000	62.5122
383.3000	61.904
383.2000	61.3408
383.1000	60.8808
383.0000	60.4975
382.9000	60.2523
382.8000	60.0886
382.7000	60.0942
382.6000	60.1263
382.5000	60.3459
382.4000	60.6511
382.3000	61.0552
382.2000	61.5154
382.1000	61.9673
382.0000	62.4239
381.9000	62.9797
381.8000	63.5307
381.7000	63.9596
381.6000	64.3011
381.5000	64.4709
381.4000	64.469
381.3000	64.4389
381.2000	64.2682
381.1000	63.9174
381.0000	63.5092
380.9000	62.9947
380.8000	62.4435
380.7000	61.8213
380.6000	61.1693
380.5000	60.6332
380.4000	60.1678
380.3000	59.6465
380.2000	59.2214
380.1000	58.9286
380.0000	58.8044
379.9000	58.7693
379.8000	58.8792
379.7000	59.1548
379.6000	59.4402
379.5000	59.8346
379.4000	60.2971
379.3000	60.8023
379.2000	61.315
379.1000	61.7205
379.0000	62.0882
378.9000	62.3167
378.8000	62.5575
378.7000	62.7392
378.6000	62.6934
378.5000	62.6198
378.4000	62.269
378.3000	61.8459
378.2000	61.342
378.1000	60.7235
378.0000	60.1958
377.9000	59.6012
377.8000	58.9835
377.7000	58.4076
377.6000	57.9715
377.5000	57.7045
377.4000	57.5574
377.3000	57.511
377.2000	57.4453
377.1000	57.488
377.0000	57.6968
376.9000	57.9487
376.8000	58.3257
376.7000	58.774
376.6000	59.2195
376.5000	59.5554
376.4000	59.8022
376.3000	60.0354
376.2000	60.1722
376.1000	60.1186
376.0000	60.0016
375.9000	59.6922
375.8000	59.3396
375.7000	58.9483
375.6000	58.5563
375.5000	58.0041
375.4000	57.4581
375.3000	57.0171
375.2000	56.6109
375.1000	56.2515
375.0000	55.9766
374.9000	55.8492
374.8000	55.8735
374.7000	55.9082
374.6000	56.0701
374.5000	56.3098
374.4000	56.5587
374.3000	56.877
374.2000	57.1567
374.1000	57.283
374.0000	57.3674
373.9000	57.4748
373.8000	57.5078
373.7000	57.2696
373.6000	56.9594
373.5000	56.6677
373.4000	56.2483
373.3000	55.7486
373.2000	55.1914
373.1000	54.7096
373.0000	54.2613
372.9000	53.8616
372.8000	53.4713
372.7000	53.213
372.6000	52.9704
372.5000	52.9
372.4000	52.8417
372.3000	52.7972
372.2000	52.8147
372.1000	52.7557
372.0000	52.7231
371.9000	52.5272
371.8000	52.3487
371.7000	52.0978
371.6000	51.7089
371.5000	51.3227
371.4000	50.8181
371.3000	50.3163
371.2000	49.781
371.1000	49.2307
371.0000	48.7699
370.9000	48.2844
370.8000	47.8533
370.7000	47.3987
370.6000	46.9259
370.5000	46.5565
370.4000	46.1618
370.3000	45.7454
370.2000	45.2899
370.1000	44.828
370.0000	43.9617
369.9000	43.515
369.8000	42.9649
369.7000	42.3993
369.6000	41.7394
369.5000	41.0272
369.4000	40.2124
369.3000	39.4805
369.2000	38.6701
369.1000	37.8911
369.0000	36.9692
368.9000	36.1425
368.8000	35.3202
368.7000	34.4018
368.6000	33.4477
368.5000	32.569
368.4000	31.5603
368.3000	30.5502
368.2000	29.625
368.1000	28.7087
368.0000	27.7433
367.9000	26.7967
367.8000	25.8198
367.7000	24.8056
367.6000	23.7055
367.5000	22.5972
367.4000	21.4696
367.3000	20.3556
367.2000	19.2827
367.1000	18.2366
367.0000	17.2047
366.9000	16.1728
366.8000	15.2173
366.7000	14.294
366.6000	13.2978
366.5000	12.3492
366.4000	11.4028
366.3000	10.491
366.2000	9.58679
366.1000	8.71787
366.0000	7.91776
365.9000	7.13606
365.8000	6.43296
365.7000	5.76764
365.6000	5.14137
365.5000	4.58647
365.4000	4.04997
365.3000	3.54791
365.2000	3.09766
365.1000	2.68356
365.0000	2.32832
364.9000	2.01556
364.8000	1.73595
364.7000	1.48288
364.6000	1.27345
364.5000	1.08843
364.4000	0.936426
364.3000	0.813534
364.2000	0.699442
364.1000	0.620051
364.0000	0.545262
363.9000	0.484973
363.8000	0.441743
363.7000	0.416321
363.6000	0.388731
363.5000	0.359613
363.4000	0.350619
363.3000	0.332336
363.2000	0.323076
363.1000	0.317182
363.0000	0.31904
362.9000	0.314988
362.8000	0.309899
362.7000	0.316125
362.6000	0.322802
362.5000	0.312323
362.4000	0.315102
362.3000	0.305887
362.2000	0.301961
362.1000	0.299408
362.0000	0.301639
361.9000	0.30479
361.8000	0.311406
361.7000	0.31334
361.6000	0.319364
361.5000	0.328007
361.4000	0.317543
361.3000	0.319416
361.2000	0.320445
361.1000	0.317971
361.0000	0.307094
360.9000	0.305778
360.8000	0.303605
360.7000	0.296467
360.6000	0.291299
360.5000	0.295633
360.4000	0.28618
360.3000	0.277055
360.2000	0.26429
360.1000	0.26279
360.0000	0.256073
359.9000	0.250044
359.8000	0.258379
359.7000	0.255195
359.6000	0.258647
359.5000	0.255032
359.4000	0.251525
359.3000	0.258146
359.2000	0.259113
359.1000	0.272939
359.0000	0.282162
358.9000	0.270953
358.8000	0.270226
358.7000	0.270869
358.6000	0.281669
358.5000	0.279117
358.4000	0.277504
358.3000	0.288179
358.2000	0.286463
358.1000	0.2959
358.0000	0.292084
357.9000	0.294133
357.8000	0.306313
357.7000	0.301496
357.6000	0.300106
357.5000	0.301131
357.4000	0.301788
357.3000	0.313848
357.2000	0.312564
357.1000	0.319568
357.0000	0.315285
356.9000	0.314272
356.8000	0.321763
356.7000	0.31227
356.6000	0.316694
356.5000	0.309142
356.4000	0.314885
356.3000	0.312426
356.2000	0.312009
356.1000	0.314801
356.0000	0.308564
355.9000	0.305434
355.8000	0.306702
355.7000	0.304932
355.6000	0.314036
355.5000	0.316145
355.4000	0.315068
355.3000	0.31288
355.2000	0.311803
355.1000	0.313084
355.0000	0.307414
354.9000	0.313937
354.8000	0.316059
354.7000	0.321791
354.6000	0.310004
354.5000	0.319184
354.4000	0.319039
354.3000	0.311965
354.2000	0.306824
354.1000	0.303304
354.0000	0.306706
353.9000	0.30919
353.8000	0.301068
353.7000	0.307548
353.6000	0.31247
353.5000	0.312396
353.4000	0.313892
353.3000	0.314619
353.2000	0.312791
353.1000	0.30865
353.0000	0.314094
352.9000	0.307981
352.8000	0.312524
352.7000	0.320283
352.6000	0.328902
352.5000	0.330326
352.4000	0.327493
352.3000	0.327248
352.2000	0.326987
352.1000	0.328831
352.0000	0.325594
351.9000	0.331606
351.8000	0.331462
351.7000	0.328211
351.6000	0.330732
351.5000	0.337474
351.4000	0.341095
351.3000	0.343603
351.2000	0.344964
351.1000	0.34244
351.0000	0.336108
350.9000	0.329921
350.8000	0.329709
350.7000	0.330395
350.6000	0.339517
350.5000	0.337052
350.4000	0.334898
350.3000	0.328561
350.2000	0.340194
350.1000	0.341311
350.0000	0.335896
349.9000	0.326624
349.8000	0.327858
349.7000	0.325097
349.6000	0.324185
349.5000	0.334999
349.4000	0.339071
349.3000	0.346638
349.2000	0.35071
349.1000	0.34213
349.0000	0.340267
348.9000	0.34736
348.8000	0.351254
348.7000	0.350913
348.6000	0.342736
348.5000	0.338277
348.4000	0.342707
348.3000	0.353072
348.2000	0.353784
348.1000	0.353123
348.0000	0.35537
347.9000	0.351102
347.8000	0.35949
347.7000	0.362709
347.6000	0.369651
347.5000	0.368368
347.4000	0.372677
347.3000	0.369267
347.2000	0.361861
347.1000	0.360424
347.0000	0.361363
346.9000	0.367463
346.8000	0.369263
346.7000	0.364942
346.6000	0.36535
346.5000	0.363272
346.4000	0.368774
346.3000	0.368477
346.2000	0.356472
346.1000	0.359644
346.0000	0.355214
345.9000	0.360863
345.8000	0.352582
345.7000	0.354855
345.6000	0.371611
345.5000	0.37187
345.4000	0.369571
345.3000	0.367896
345.2000	0.36489
345.1000	0.366339
345.0000	0.359438
344.9000	0.3596
344.8000	0.357398
344.7000	0.363231
344.6000	0.361857
344.5000	0.358051
344.4000	0.356057
344.3000	0.359649
344.2000	0.368585
344.1000	0.368148
344.0000	0.359401
343.9000	0.37067
343.8000	0.368945
343.7000	0.376218
343.6000	0.381053
343.5000	0.380799
343.4000	0.390545
343.3000	0.398411
343.2000	0.395501
343.1000	0.380985
343.0000	0.387983
342.9000	0.386632
342.8000	0.378217
342.7000	0.371609
342.6000	0.376992
342.5000	0.377489
342.4000	0.369413
342.3000	0.366284
342.2000	0.365677
342.1000	0.364777
342.0000	0.361226
341.9000	0.364071
341.8000	0.35907
341.7000	0.360262
341.6000	0.349943
341.5000	0.379703
341.4000	0.377854
341.3000	0.391633
341.2000	0.398039
341.1000	0.402068
341.0000	0.390948
340.9000	0.384187
340.8000	0.388535
340.7000	0.386826
340.6000	0.394273
340.5000	0.38885
340.4000	0.394382
340.3000	0.399438
340.2000	0.398679
340.1000	0.406763
340.0000	0.283595
339.9000	0.278231
339.8000	0.283826
339.7000	0.296042
339.6000	0.294537
339.5000	0.281466
339.4000	0.263512
339.3000	0.256202
339.2000	0.244747
339.1000	0.227053
339.0000	0.247462
338.9000	0.241265
338.8000	0.254986
338.7000	0.268714
338.6000	0.268708
338.5000	0.272333
338.4000	0.243162
338.3000	0.240241
338.2000	0.241532
338.1000	0.219457
338.0000	0.218935
337.9000	0.237658
337.8000	0.24376
337.7000	0.236716
337.6000	0.237272
337.5000	0.261727
337.4000	0.249812
337.3000	0.273988
337.2000	0.265469
337.1000	0.265418
337.0000	0.254106
336.9000	0.262407
336.8000	0.28613
336.7000	0.285641
336.6000	0.293916
336.5000	0.309374
336.4000	0.307322
336.3000	0.277335
336.2000	0.266683
336.1000	0.286298
336.0000	0.295574
335.9000	0.279541
335.8000	0.270623
335.7000	0.27494
335.6000	0.286224
335.5000	0.263262
335.4000	0.273916
335.3000	0.258433
335.2000	0.253071
335.1000	0.246348
335.0000	0.249155
334.9000	0.227247
334.8000	0.230946
334.7000	0.250058
334.6000	0.256074
334.5000	0.255836
334.4000	0.269582
334.3000	0.279729
334.2000	0.266138
334.1000	0.271748
334.0000	0.265761
333.9000	0.267927
333.8000	0.255503
333.7000	0.271872
333.6000	0.255549
333.5000	0.271889
333.4000	0.257152
333.3000	0.259364
333.2000	0.25929
333.1000	0.259072
333.0000	0.261196
332.9000	0.232299
332.8000	0.245346
332.7000	0.2453
332.6000	0.257456
332.5000	0.260468
332.4000	0.266994
332.3000	0.266333
332.2000	0.266005
332.1000	0.238718
332.0000	0.255204
331.9000	0.257955
331.8000	0.279653
331.7000	0.261824
331.6000	0.236987
331.5000	0.22954
331.4000	0.217536
331.3000	0.236139
331.2000	0.231975
331.1000	0.215369
331.0000	0.223784
330.9000	0.203586
330.8000	0.201149
330.7000	0.217105
330.6000	0.232615
330.5000	0.233986
330.4000	0.231509
330.3000	0.238698
330.2000	0.226348
330.1000	0.238504
330.0000	0.255345
329.9000	0.24024
329.8000	0.223023
329.7000	0.226015
329.6000	0.209625
329.5000	0.215221
329.4000	0.237952
329.3000	0.228901
329.2000	0.22376
329.1000	0.211083
329.0000	0.194709
328.9000	0.198891
328.8000	0.18848
328.7000	0.172436
328.6000	0.175942
328.5000	0.185091
328.4000	0.189972
328.3000	0.196667
328.2000	0.232764
328.1000	0.235912
328.0000	0.247471
327.9000	0.231484
327.8000	0.229791
327.7000	0.231195
327.6000	0.197294
327.5000	0.216047
327.4000	0.22051
327.3000	0.214673
327.2000	0.214022
327.1000	0.208159
327.0000	0.203671
326.9000	0.211302
326.8000	0.214737
326.7000	0.214943
326.6000	0.198419
326.5000	0.194276
326.4000	0.170225
326.3000	0.17591
326.2000	0.166893
326.1000	0.172646
326.0000	0.199474
325.9000	0.194678
325.8000	0.195756
325.7000	0.203257
325.6000	0.212917
325.5000	0.222864
325.4000	0.22973
325.3000	0.242557
325.2000	0.241293
325.1000	0.247067
325.0000	0.241557
324.9000	0.231467
324.8000	0.238234
324.7000	0.244078
324.6000	0.239588
324.5000	0.263825
324.4000	0.259292
324.3000	0.24031
324.2000	0.236538
324.1000	0.236793
324.0000	0.243641
323.9000	0.237071
323.8000	0.224462
323.7000	0.224976
323.6000	0.215794
323.5000	0.202127
323.4000	0.202758
323.3000	0.207555
323.2000	0.22027
323.1000	0.212018
323.0000	0.204821
322.9000	0.185623
322.8000	0.192775
322.7000	0.202195
322.6000	0.218837
322.5000	0.234088
322.4000	0.232307
322.3000	0.227374
322.2000	0.229729
322.1000	0.207211
322.0000	0.234103
321.9000	0.251422
321.8000	0.261313
321.7000	0.249747
321.6000	0.230241
321.5000	0.247925
321.4000	0.25062
321.3000	0.256227
321.2000	0.259147
321.1000	0.272679
321.0000	0.253554
320.9000	0.22187
320.8000	0.22249
320.7000	0.215022
320.6000	0.2165
320.5000	0.2279
320.4000	0.213649
320.3000	0.195966
320.2000	0.183495
320.1000	0.181118
320.0000	0.181551
319.9000	0.17405
319.8000	0.145233
319.7000	0.131973
319.6000	0.120005
319.5000	0.105296
319.4000	0.105406
319.3000	0.133239
319.2000	0.130474
319.1000	0.144433
319.0000	0.154538
318.9000	0.149333
318.8000	0.136918
318.7000	0.162871
318.6000	0.163116
318.5000	0.1699
318.4000	0.188296
318.3000	0.202463
318.2000	0.226828
318.1000	0.240423
318.0000	0.255687
317.9000	0.250228
317.8000	0.253215
317.7000	0.253638
317.6000	0.246259
317.5000	0.240948
317.4000	0.240331
317.3000	0.240614
317.2000	0.233195
317.1000	0.226495
317.0000	0.233267
316.9000	0.24536
316.8000	0.251045
316.7000	0.233545
316.6000	0.218585
316.5000	0.210037
316.4000	0.211707
316.3000	0.209644
316.2000	0.211983
316.1000	0.204499
316.0000	0.19297
315.9000	0.204358
315.8000	0.209239
315.7000	0.211141
315.6000	0.227272
315.5000	0.225401
315.4000	0.225178
315.3000	0.2345
315.2000	0.212645
315.1000	0.210186
315.0000	0.214501
314.9000	0.219316
314.8000	0.212984
314.7000	0.218271
314.6000	0.23264
314.5000	0.225481
314.4000	0.23565
314.3000	0.23629
314.2000	0.226943
314.1000	0.20896
314.0000	0.208874
313.9000	0.190179
313.8000	0.181282
313.7000	0.164381
313.6000	0.197646
313.5000	0.187886
313.4000	0.191419
313.3000	0.179271
313.2000	0.176766
313.1000	0.178942
313.0000	0.177862
312.9000	0.178955
312.8000	0.175309
312.7000	0.166924
312.6000	0.168809
312.5000	0.180954
312.4000	0.174467
312.3000	0.190184
312.2000	0.190402
312.1000	0.196678
312.0000	0.168924
311.9000	0.182241
311.8000	0.189296
311.7000	0.188552
311.6000	0.198707
311.5000	0.187939
311.4000	0.176048
311.3000	0.171973
311.2000	0.167023
311.1000	0.165887
311.0000	0.155247
310.9000	0.151034
310.8000	0.156203
310.7000	0.155131
310.6000	0.167516
310.5000	0.168084
310.4000	0.190613
310.3000	0.181992
310.2000	0.177666
310.1000	0.18189
310.0000	0.171511
309.9000	0.198895
309.8000	0.201751
309.7000	0.209061
309.6000	0.222832
309.5000	0.235072
309.4000	0.245703
309.3000	0.235146
309.2000	0.235207
309.1000	0.23284
309.0000	0.235511
308.9000	0.240611
308.8000	0.233552
308.7000	0.238911
308.6000	0.237163
308.5000	0.24599
308.4000	0.236073
308.3000	0.224685
308.2000	0.218804
308.1000	0.211877
308.0000	0.218386
307.9000	0.217682
307.8000	0.220538
307.7000	0.234741
307.6000	0.240072
307.5000	0.238653
307.4000	0.242403
307.3000	0.228855
307.2000	0.21497
307.1000	0.225514
307.0000	0.233702
306.9000	0.222301
306.8000	0.217257
306.7000	0.220404
306.6000	0.223011
306.5000	0.212231
306.4000	0.211366
306.3000	0.195732
306.2000	0.192344
306.1000	0.205459
306.0000	0.208546
305.9000	0.205753
305.8000	0.191807
305.7000	0.190853
305.6000	0.197905
305.5000	0.188579
305.4000	0.192185
305.3000	0.208394
305.2000	0.224543
305.1000	0.219914
305.0000	0.217491
304.9000	0.245975
304.8000	0.249665
304.7000	0.249183
304.6000	0.249336
304.5000	0.24711
304.4000	0.217202
304.3000	0.229694
304.2000	0.231747
304.1000	0.223939
304.0000	0.229551
303.9000	0.218784
303.8000	0.216619
303.7000	0.214308
303.6000	0.217553
303.5000	0.214406
303.4000	0.220067
303.3000	0.205937
303.2000	0.183463
303.1000	0.189397
303.0000	0.191303
302.9000	0.174134
302.8000	0.190253
302.7000	0.193286
302.6000	0.204351
302.5000	0.218062
302.4000	0.21518
302.3000	0.211083
302.2000	0.209877
302.1000	0.201699
302.0000	0.200795
301.9000	0.203495
301.8000	0.200534
301.7000	0.18785
301.6000	0.182729
301.5000	0.18046
301.4000	0.183353
301.3000	0.174933
301.2000	0.1768
301.1000	0.175417
301.0000	0.15388
300.9000	0.147466
300.8000	0.151713
300.7000	0.156413
300.6000	0.160888
300.5000	0.171726
300.4000	0.158018
300.3000	0.149829
300.2000	0.153052
300.1000	0.162017
300.0000	0.171207
