TITLE	13_4
DATA TYPE	ULTRAVIOLET SPECTRUM
ORIGIN	JASCO
OWNER	
DATE	21/05/05
TIME	17:45:57
SPECTROMETER/DATA SYSTEM	
RESOLUTION	
DELTAX	-0.1
XUNITS	NANOMETERS
YUNITS	TRANSMITTANCE
FIRSTX	  850.0000
LASTX	  300.0000
NPOINTS	    5501
FIRSTY	    80.14471
MAXY	    83.88794
MINY	     0.10727
XYDATA
850.0000	80.1447
849.9000	80.4232
849.8000	80.3914
849.7000	80.2797
849.6000	80.6577
849.5000	80.9941
849.4000	80.9565
849.3000	80.7148
849.2000	80.593
849.1000	80.576
849.0000	81.0337
848.9000	81.1076
848.8000	80.9875
848.7000	80.8948
848.6000	81.2243
848.5000	81.5163
848.4000	81.5006
848.3000	81.2859
848.2000	81.5253
848.1000	81.8545
848.0000	81.9822
847.9000	81.7606
847.8000	81.8418
847.7000	81.9804
847.6000	82.3733
847.5000	82.3375
847.4000	82.0742
847.3000	82.2497
847.2000	82.5803
847.1000	83.0661
847.0000	83.0161
846.9000	82.8781
846.8000	82.8579
846.7000	83.1171
846.6000	83.2051
846.5000	83.0836
846.4000	82.8845
846.3000	83.0836
846.2000	83.1033
846.1000	83.2711
846.0000	83.0529
845.9000	83.1954
845.8000	83.447
845.7000	83.4475
845.6000	83.3971
845.5000	83.1311
845.4000	83.3039
845.3000	83.5661
845.2000	83.7148
845.1000	83.6846
845.0000	83.6169
844.9000	83.6528
844.8000	83.8879
844.7000	83.6945
844.6000	83.5816
844.5000	83.4903
844.4000	83.6626
844.3000	83.6122
844.2000	83.5161
844.1000	83.4715
844.0000	83.4791
843.9000	83.533
843.8000	83.6907
843.7000	83.4586
843.6000	83.2738
843.5000	83.359
843.4000	83.361
843.3000	83.2864
843.2000	83.0747
843.1000	83.1375
843.0000	83.0671
842.9000	83.198
842.8000	83.0784
842.7000	82.9709
842.6000	82.9717
842.5000	82.9098
842.4000	82.8269
842.3000	82.7487
842.2000	82.4488
842.1000	82.4705
842.0000	82.5242
841.9000	82.4696
841.8000	82.3164
841.7000	82.148
841.6000	82.0103
841.5000	81.8755
841.4000	82.0853
841.3000	81.8322
841.2000	81.8005
841.1000	81.8365
841.0000	81.796
840.9000	81.6538
840.8000	81.5516
840.7000	81.2523
840.6000	81.1443
840.5000	80.9736
840.4000	80.9308
840.3000	80.7139
840.2000	80.4617
840.1000	80.4576
840.0000	80.5421
839.9000	80.6448
839.8000	80.3083
839.7000	80.121
839.6000	79.9789
839.5000	79.9335
839.4000	79.6958
839.3000	79.564
839.2000	79.4273
839.1000	79.546
839.0000	79.5987
838.9000	79.412
838.8000	79.1216
838.7000	79.0876
838.6000	79.4391
838.5000	79.2235
838.4000	79.0667
838.3000	78.8467
838.2000	78.8848
838.1000	78.9268
838.0000	78.7358
837.9000	78.6326
837.8000	78.6988
837.7000	78.8034
837.6000	78.66
837.5000	78.492
837.4000	78.2181
837.3000	78.3553
837.2000	78.4522
837.1000	78.1906
837.0000	77.8002
836.9000	77.8166
836.8000	77.8028
836.7000	77.7016
836.6000	77.341
836.5000	77.098
836.4000	77.3489
836.3000	77.3056
836.2000	76.8976
836.1000	76.5515
836.0000	76.6658
835.9000	76.6813
835.8000	76.5332
835.7000	76.1982
835.6000	75.9491
835.5000	76.2515
835.4000	76.2564
835.3000	75.946
835.2000	75.571
835.1000	75.6294
835.0000	75.9058
834.9000	75.9249
834.8000	75.3896
834.7000	75.17
834.6000	75.4733
834.5000	75.565
834.4000	75.2243
834.3000	74.9755
834.2000	74.9978
834.1000	75.2169
834.0000	75.1687
833.9000	74.5521
833.8000	74.3305
833.7000	74.6626
833.6000	74.8289
833.5000	74.4842
833.4000	74.09
833.3000	74.1603
833.2000	74.4117
833.1000	74.4562
833.0000	74.1692
832.9000	73.9812
832.8000	74.3679
832.7000	74.6099
832.6000	74.4277
832.5000	74.046
832.4000	74.1889
832.3000	74.5623
832.2000	74.5963
832.1000	74.112
832.0000	73.9932
831.9000	74.27
831.8000	74.4852
831.7000	74.16
831.6000	73.8873
831.5000	73.8912
831.4000	74.1435
831.3000	74.1963
831.2000	73.7498
831.1000	73.4547
831.0000	73.8116
830.9000	74.1702
830.8000	73.9492
830.7000	73.5076
830.6000	73.5134
830.5000	74.0014
830.4000	74.1448
830.3000	73.9221
830.2000	73.6594
830.1000	74.0646
830.0000	74.4377
829.9000	74.2372
829.8000	73.912
829.7000	74.0694
829.6000	74.4653
829.5000	74.5986
829.4000	74.2472
829.3000	73.9653
829.2000	74.2026
829.1000	74.7422
829.0000	74.7278
828.9000	74.3487
828.8000	74.3579
828.7000	74.727
828.6000	74.9474
828.5000	74.6085
828.4000	74.403
828.3000	74.7431
828.2000	75.1455
828.1000	75.0017
828.0000	74.7788
827.9000	75.0048
827.8000	75.4834
827.7000	75.5842
827.6000	75.3321
827.5000	75.1383
827.4000	75.439
827.3000	75.8755
827.2000	75.7433
827.1000	75.4218
827.0000	75.6962
826.9000	76.1051
826.8000	76.1916
826.7000	75.9924
826.6000	75.9117
826.5000	76.2964
826.4000	76.5232
826.3000	76.2261
826.2000	76.0241
826.1000	76.3147
826.0000	76.7841
825.9000	76.8326
825.8000	76.7304
825.7000	76.7072
825.6000	77.2417
825.5000	77.5513
825.4000	77.336
825.3000	77.3416
825.2000	77.6855
825.1000	78.0237
825.0000	77.9618
824.9000	77.7381
824.8000	77.8474
824.7000	78.343
824.6000	78.4532
824.5000	78.2283
824.4000	78.196
824.3000	78.4986
824.2000	78.7337
824.1000	78.6921
824.0000	78.4076
823.9000	78.5707
823.8000	78.881
823.7000	78.9473
823.6000	78.7649
823.5000	78.7765
823.4000	79.147
823.3000	79.4878
823.2000	79.3791
823.1000	79.381
823.0000	79.6326
822.9000	80.2345
822.8000	80.243
822.7000	80.2905
822.6000	80.4158
822.5000	80.8146
822.4000	81.0126
822.3000	80.8199
822.2000	80.8992
822.1000	81.0067
822.0000	81.3789
821.9000	81.4173
821.8000	81.3325
821.7000	81.2867
821.6000	81.585
821.5000	81.613
821.4000	81.4801
821.3000	81.2501
821.2000	81.4908
821.1000	81.5768
821.0000	81.5144
820.9000	81.1767
820.8000	81.4494
820.7000	81.7189
820.6000	81.7241
820.5000	81.6072
820.4000	81.5994
820.3000	81.9035
820.2000	82.1037
820.1000	82.0716
820.0000	82.0558
819.9000	82.0568
819.8000	82.2318
819.7000	82.2944
819.6000	82.1181
819.5000	82.2108
819.4000	82.3948
819.3000	82.6121
819.2000	82.3365
819.1000	82.3736
819.0000	82.4639
818.9000	82.638
818.8000	82.4896
818.7000	82.3403
818.6000	82.3653
818.5000	82.5422
818.4000	82.3855
818.3000	82.4937
818.2000	82.5015
818.1000	82.5802
818.0000	82.752
817.9000	82.5623
817.8000	82.5095
817.7000	82.5352
817.6000	82.7556
817.5000	82.7248
817.4000	82.7502
817.3000	82.8227
817.2000	82.8073
817.1000	82.7572
817.0000	82.6095
816.9000	82.4412
816.8000	82.4928
816.7000	82.3995
816.6000	82.3305
816.5000	82.2057
816.4000	82.1174
816.3000	82.0077
816.2000	81.9459
816.1000	81.9435
816.0000	81.8208
815.9000	81.644
815.8000	81.5251
815.7000	81.3912
815.6000	81.293
815.5000	81.069
815.4000	80.9435
815.3000	81.1068
815.2000	81.0804
815.1000	80.9279
815.0000	80.8474
814.9000	80.8897
814.8000	80.7259
814.7000	80.722
814.6000	80.5979
814.5000	80.585
814.4000	80.5021
814.3000	80.4638
814.2000	80.3359
814.1000	80.3306
814.0000	80.3767
813.9000	80.3401
813.8000	80.3933
813.7000	80.1148
813.6000	80.0883
813.5000	80.1059
813.4000	79.9437
813.3000	79.6603
813.2000	79.8676
813.1000	79.8102
813.0000	79.4998
812.9000	79.2454
812.8000	79.162
812.7000	79.1616
812.6000	78.8788
812.5000	78.5041
812.4000	78.3117
812.3000	78.3784
812.2000	78.1912
812.1000	77.8013
812.0000	77.6198
811.9000	77.4407
811.8000	77.4663
811.7000	77.2386
811.6000	76.766
811.5000	76.7425
811.4000	76.9165
811.3000	76.7293
811.2000	76.5431
811.1000	76.4912
811.0000	76.712
810.9000	76.8489
810.8000	76.6148
810.7000	76.418
810.6000	76.4279
810.5000	76.6462
810.4000	76.3342
810.3000	76.1354
810.2000	76.0124
810.1000	76.158
810.0000	76.008
809.9000	75.7544
809.8000	75.6462
809.7000	75.7434
809.6000	75.5726
809.5000	75.1724
809.4000	74.9683
809.3000	74.8816
809.2000	74.8435
809.1000	74.572
809.0000	74.4339
808.9000	74.3702
808.8000	74.4238
808.7000	74.2632
808.6000	73.9879
808.5000	74.0695
808.4000	74.0985
808.3000	73.9724
808.2000	73.7451
808.1000	73.6999
808.0000	73.8429
807.9000	73.8526
807.8000	73.6602
807.7000	73.5146
807.6000	73.7387
807.5000	73.707
807.4000	73.3853
807.3000	73.3154
807.2000	73.5156
807.1000	73.5256
807.0000	73.4505
806.9000	73.1945
806.8000	73.3733
806.7000	73.4666
806.6000	73.3238
806.5000	73.1344
806.4000	73.1866
806.3000	73.4019
806.2000	73.2966
806.1000	73.165
806.0000	73.075
805.9000	73.4403
805.8000	73.4115
805.7000	73.3334
805.6000	73.2448
805.5000	73.5865
805.4000	73.603
805.3000	73.3872
805.2000	73.2535
805.1000	73.4137
805.0000	73.677
804.9000	73.6146
804.8000	73.4955
804.7000	73.5735
804.6000	73.8229
804.5000	73.8493
804.4000	73.7562
804.3000	73.729
804.2000	74.1145
804.1000	74.0257
804.0000	73.9126
803.9000	74.0181
803.8000	74.3123
803.7000	74.5648
803.6000	74.5624
803.5000	74.6053
803.4000	74.7296
803.3000	74.8485
803.2000	74.6822
803.1000	74.5602
803.0000	74.6451
802.9000	74.7323
802.8000	74.6645
802.7000	74.5344
802.6000	74.6148
802.5000	74.8866
802.4000	74.8641
802.3000	74.6164
802.2000	74.8252
802.1000	74.9795
802.0000	74.9539
801.9000	74.8713
801.8000	75.037
801.7000	75.2743
801.6000	75.3117
801.5000	75.3504
801.4000	75.4746
801.3000	75.7461
801.2000	75.8105
801.1000	75.8501
801.0000	75.9419
800.9000	76.0227
800.8000	76.2321
800.7000	76.2996
800.6000	76.3379
800.5000	76.4088
800.4000	76.6218
800.3000	76.6516
800.2000	76.599
800.1000	76.7774
800.0000	77.0825
799.9000	77.1389
799.8000	77.2721
799.7000	77.4215
799.6000	77.6928
799.5000	77.7859
799.4000	77.9338
799.3000	78.2478
799.2000	78.4057
799.1000	78.4916
799.0000	78.5666
798.9000	78.7799
798.8000	78.9145
798.7000	79.0787
798.6000	79.1227
798.5000	79.3078
798.4000	79.4951
798.3000	79.7121
798.2000	79.7252
798.1000	79.8364
798.0000	79.9541
797.9000	80.1049
797.8000	80.0585
797.7000	80.1631
797.6000	80.3987
797.5000	80.5311
797.4000	80.5453
797.3000	80.6487
797.2000	80.8315
797.1000	80.8885
797.0000	80.9537
796.9000	80.8912
796.8000	81.0068
796.7000	80.9801
796.6000	80.9275
796.5000	81.0448
796.4000	81.2915
796.3000	81.413
796.2000	81.4979
796.1000	81.3663
796.0000	81.3132
795.9000	81.4421
795.8000	81.4002
795.7000	81.5646
795.6000	81.733
795.5000	81.8905
795.4000	82.0025
795.3000	82.0334
795.2000	82.1236
795.1000	82.3182
795.0000	82.431
794.9000	82.3675
794.8000	82.2534
794.7000	82.4083
794.6000	82.3465
794.5000	82.4156
794.4000	82.5232
794.3000	82.529
794.2000	82.6102
794.1000	82.4845
794.0000	82.389
793.9000	82.4273
793.8000	82.5227
793.7000	82.5847
793.6000	82.5009
793.5000	82.4824
793.4000	82.4648
793.3000	82.4607
793.2000	82.5051
793.1000	82.3502
793.0000	82.4837
792.9000	82.4283
792.8000	82.2044
792.7000	82.158
792.6000	82.0642
792.5000	81.8662
792.4000	81.7307
792.3000	81.702
792.2000	81.6383
792.1000	81.551
792.0000	81.4143
791.9000	81.3053
791.8000	81.3087
791.7000	81.2176
791.6000	81.064
791.5000	81.0134
791.4000	80.9607
791.3000	80.9861
791.2000	80.9744
791.1000	80.8187
791.0000	80.7781
790.9000	80.6765
790.8000	80.5882
790.7000	80.4402
790.6000	80.2243
790.5000	80.1164
790.4000	80.0321
790.3000	80.0527
790.2000	79.9505
790.1000	79.7921
790.0000	79.6463
789.9000	79.51
789.8000	79.377
789.7000	79.0912
789.6000	78.9283
789.5000	78.9328
789.4000	78.9415
789.3000	78.9688
789.2000	78.8695
789.1000	78.5619
789.0000	78.5473
788.9000	78.4149
788.8000	78.2094
788.7000	77.9468
788.6000	77.9229
788.5000	77.8892
788.4000	77.7135
788.3000	77.6598
788.2000	77.5506
788.1000	77.4558
788.0000	77.2741
787.9000	77.1839
787.8000	77.0709
787.7000	76.9792
787.6000	76.7327
787.5000	76.7107
787.4000	76.6238
787.3000	76.4355
787.2000	76.2896
787.1000	76.1733
787.0000	76.052
786.9000	75.9401
786.8000	75.7791
786.7000	75.6157
786.6000	75.5745
786.5000	75.5999
786.4000	75.5602
786.3000	75.4153
786.2000	75.3267
786.1000	75.2105
786.0000	75.0934
785.9000	75.0272
785.8000	74.9682
785.7000	74.9769
785.6000	74.8841
785.5000	74.7729
785.4000	74.7625
785.3000	74.7078
785.2000	74.6643
785.1000	74.5867
785.0000	74.4818
784.9000	74.3606
784.8000	74.1773
784.7000	73.9978
784.6000	73.9269
784.5000	73.8431
784.4000	73.7506
784.3000	73.6058
784.2000	73.5094
784.1000	73.3663
784.0000	73.3572
783.9000	73.203
783.8000	73.1555
783.7000	73.1428
783.6000	73.0809
783.5000	72.9803
783.4000	72.8903
783.3000	72.9653
783.2000	72.9494
783.1000	73.0195
783.0000	73.0146
782.9000	72.9878
782.8000	72.9918
782.7000	72.9901
782.6000	72.9745
782.5000	72.9992
782.4000	72.9139
782.3000	73.0329
782.2000	72.9764
782.1000	72.8617
782.0000	72.9108
781.9000	72.8859
781.8000	72.9306
781.7000	72.8362
781.6000	72.8371
781.5000	72.7476
781.4000	72.7364
781.3000	72.7487
781.2000	72.7771
781.1000	72.8246
781.0000	72.9059
780.9000	72.9623
780.8000	72.9797
780.7000	73.0117
780.6000	73.0244
780.5000	73.0592
780.4000	73.0846
780.3000	73.206
780.2000	73.3113
780.1000	73.3112
780.0000	73.3011
779.9000	73.4561
779.8000	73.5728
779.7000	73.5327
779.6000	73.5733
779.5000	73.7429
779.4000	73.7648
779.3000	73.7633
779.2000	73.9012
779.1000	74.027
779.0000	74.1976
778.9000	74.2184
778.8000	74.1524
778.7000	74.3174
778.6000	74.3035
778.5000	74.3917
778.4000	74.6812
778.3000	74.8295
778.2000	74.9222
778.1000	74.9879
778.0000	75.136
777.9000	75.2925
777.8000	75.4433
777.7000	75.5486
777.6000	75.7064
777.5000	75.9831
777.4000	76.0508
777.3000	76.1041
777.2000	76.3457
777.1000	76.5197
777.0000	76.6947
776.9000	76.6559
776.8000	76.6788
776.7000	76.9235
776.6000	77.0001
776.5000	77.0685
776.4000	77.2006
776.3000	77.4188
776.2000	77.4913
776.1000	77.5437
776.0000	77.6618
775.9000	77.8052
775.8000	77.8633
775.7000	77.954
775.6000	78.1996
775.5000	78.455
775.4000	78.3956
775.3000	78.5518
775.2000	78.8076
775.1000	78.9995
775.0000	78.9583
774.9000	79.1212
774.8000	79.323
774.7000	79.3883
774.6000	79.3694
774.5000	79.5065
774.4000	79.6822
774.3000	79.763
774.2000	79.8587
774.1000	80.0055
774.0000	80.1414
773.9000	80.0527
773.8000	80.0933
773.7000	80.2286
773.6000	80.4389
773.5000	80.3577
773.4000	80.488
773.3000	80.6292
773.2000	80.7951
773.1000	80.853
773.0000	80.872
772.9000	80.8898
772.8000	81.033
772.7000	80.9816
772.6000	80.9362
772.5000	81.1172
772.4000	81.2048
772.3000	81.277
772.2000	81.3658
772.1000	81.4679
772.0000	81.4075
771.9000	81.4991
771.8000	81.438
771.7000	81.5199
771.6000	81.5402
771.5000	81.5091
771.4000	81.5948
771.3000	81.7191
771.2000	81.7562
771.1000	81.672
771.0000	81.7511
770.9000	81.7883
770.8000	81.8492
770.7000	81.8003
770.6000	81.7862
770.5000	81.7632
770.4000	81.7738
770.3000	81.6442
770.2000	81.6175
770.1000	81.619
770.0000	81.5741
769.9000	81.5162
769.8000	81.5837
769.7000	81.4845
769.6000	81.3817
769.5000	81.3871
769.4000	81.2747
769.3000	81.0739
769.2000	80.9186
769.1000	80.8694
769.0000	81.0038
768.9000	80.9759
768.8000	80.8694
768.7000	80.8351
768.6000	80.7924
768.5000	80.6797
768.4000	80.5689
768.3000	80.4389
768.2000	80.1801
768.1000	80.0892
768.0000	79.9585
767.9000	79.8505
767.8000	79.7882
767.7000	79.7651
767.6000	79.656
767.5000	79.5586
767.4000	79.3379
767.3000	79.2244
767.2000	79.1455
767.1000	78.9867
767.0000	78.8101
766.9000	78.6741
766.8000	78.6904
766.7000	78.629
766.6000	78.5293
766.5000	78.4464
766.4000	78.4752
766.3000	78.4318
766.2000	78.1934
766.1000	78.1331
766.0000	78.0256
765.9000	77.9041
765.8000	77.6641
765.7000	77.5389
765.6000	77.5092
765.5000	77.3301
765.4000	77.2096
765.3000	77.2321
765.2000	77.0462
765.1000	76.783
765.0000	76.6729
764.9000	76.6945
764.8000	76.4545
764.7000	76.1711
764.6000	76.0437
764.5000	76.0572
764.4000	75.8252
764.3000	75.6036
764.2000	75.6746
764.1000	75.6122
764.0000	75.2602
763.9000	75.1065
763.8000	75.1821
763.7000	74.9993
763.6000	74.7074
763.5000	74.6255
763.4000	74.6064
763.3000	74.4443
763.2000	74.2696
763.1000	74.2437
763.0000	74.3545
762.9000	74.0229
762.8000	73.8609
762.7000	73.8717
762.6000	73.8022
762.5000	73.572
762.4000	73.5378
762.3000	73.6423
762.2000	73.5095
762.1000	73.2768
762.0000	73.2376
761.9000	73.3194
761.8000	73.2804
761.7000	72.9135
761.6000	72.8671
761.5000	72.9594
761.4000	72.7635
761.3000	72.5557
761.2000	72.6542
761.1000	72.7169
761.0000	72.4706
760.9000	72.363
760.8000	72.4478
760.7000	72.366
760.6000	72.1881
760.5000	72.1312
760.4000	72.2001
760.3000	72.1789
760.2000	72.0073
760.1000	72.1788
760.0000	72.3775
759.9000	72.2255
759.8000	72.0398
759.7000	72.2337
759.6000	72.2806
759.5000	72.0295
759.4000	72.0523
759.3000	72.286
759.2000	72.3025
759.1000	72.1455
759.0000	72.214
758.9000	72.4163
758.8000	72.361
758.7000	72.1555
758.6000	72.3112
758.5000	72.5195
758.4000	72.279
758.3000	72.1399
758.2000	72.4919
758.1000	72.6123
758.0000	72.4636
757.9000	72.5891
757.8000	72.8315
757.7000	72.8609
757.6000	72.7142
757.5000	72.9484
757.4000	73.2045
757.3000	73.1808
757.2000	73.2078
757.1000	73.5365
757.0000	73.6711
756.9000	73.527
756.8000	73.6104
756.7000	74.0095
756.6000	74.0457
756.5000	73.9691
756.4000	74.1965
756.3000	74.4414
756.2000	74.4556
756.1000	74.4047
756.0000	74.7084
755.9000	74.9272
755.8000	74.8221
755.7000	74.8882
755.6000	75.1915
755.5000	75.3467
755.4000	75.2435
755.3000	75.4121
755.2000	75.7938
755.1000	75.8038
755.0000	75.8193
754.9000	76.1383
754.8000	76.3873
754.7000	76.3659
754.6000	76.2799
754.5000	76.5583
754.4000	76.7206
754.3000	76.6177
754.2000	76.7816
754.1000	77.1242
754.0000	77.1761
753.9000	77.112
753.8000	77.4431
753.7000	77.6945
753.6000	77.684
753.5000	77.7667
753.4000	78.016
753.3000	78.0493
753.2000	77.9706
753.1000	78.1168
753.0000	78.6131
752.9000	78.6526
752.8000	78.6155
752.7000	78.8661
752.6000	79.1036
752.5000	79.0755
752.4000	79.1361
752.3000	79.3945
752.2000	79.5081
752.1000	79.4404
752.0000	79.5038
751.9000	79.706
751.8000	79.7433
751.7000	79.7665
751.6000	79.9791
751.5000	80.1612
751.4000	80.0306
751.3000	80.0329
751.2000	80.2638
751.1000	80.3493
751.0000	80.323
750.9000	80.3824
750.8000	80.5458
750.7000	80.5656
750.6000	80.4916
750.5000	80.7659
750.4000	80.9496
750.3000	80.9087
750.2000	80.9811
750.1000	81.1674
750.0000	81.184
749.9000	81.0411
749.8000	81.2036
749.7000	81.4568
749.6000	81.3214
749.5000	81.298
749.4000	81.3215
749.3000	81.3275
749.2000	81.2292
749.1000	81.1381
749.0000	81.2321
748.9000	81.1255
748.8000	80.8981
748.7000	80.9366
748.6000	80.9337
748.5000	80.8315
748.4000	80.7961
748.3000	80.892
748.2000	80.7821
748.1000	80.5951
748.0000	80.5932
747.9000	80.5545
747.8000	80.5505
747.7000	80.5595
747.6000	80.534
747.5000	80.5592
747.4000	80.4506
747.3000	80.405
747.2000	80.3571
747.1000	80.2431
747.0000	80.1133
746.9000	80.0147
746.8000	80.0025
746.7000	79.8426
746.6000	79.7536
746.5000	79.6434
746.4000	79.4969
746.3000	79.3935
746.2000	79.2485
746.1000	79.0375
746.0000	78.9184
745.9000	78.744
745.8000	78.5612
745.7000	78.3416
745.6000	78.3241
745.5000	78.1872
745.4000	77.9931
745.3000	77.9209
745.2000	77.8151
745.1000	77.624
745.0000	77.4145
744.9000	77.3855
744.8000	77.3617
744.7000	77.1936
744.6000	77.1146
744.5000	77.1028
744.4000	76.9145
744.3000	76.7747
744.2000	76.768
744.1000	76.6877
744.0000	76.4271
743.9000	76.308
743.8000	76.2348
743.7000	75.9377
743.6000	75.7027
743.5000	75.6942
743.4000	75.7035
743.3000	75.3809
743.2000	75.1384
743.1000	75.1394
743.0000	74.909
742.9000	74.6419
742.8000	74.6072
742.7000	74.5247
742.6000	74.2327
742.5000	74.0727
742.4000	74.1606
742.3000	74.019
742.2000	73.8376
742.1000	73.8312
742.0000	73.7994
741.9000	73.5294
741.8000	73.365
741.7000	73.4945
741.6000	73.3938
741.5000	73.0266
741.4000	73.0335
741.3000	73.0913
741.2000	72.8189
741.1000	72.6181
741.0000	72.8247
740.9000	72.7831
740.8000	72.5067
740.7000	72.479
740.6000	72.6262
740.5000	72.4915
740.4000	72.2184
740.3000	72.4375
740.2000	72.3924
740.1000	72.113
740.0000	71.9568
739.9000	72.112
739.8000	71.8645
739.7000	71.645
739.6000	71.7781
739.5000	71.8609
739.4000	71.5406
739.3000	71.5372
739.2000	71.7197
739.1000	71.6779
739.0000	71.4857
738.9000	71.6207
738.8000	71.717
738.7000	71.5356
738.6000	71.5152
738.5000	71.8062
738.4000	71.8063
738.3000	71.6634
738.2000	71.8662
738.1000	72.0284
738.0000	71.9153
737.9000	71.8713
737.8000	72.2141
737.7000	72.2136
737.6000	72.0365
737.5000	72.1331
737.4000	72.3836
737.3000	72.2381
737.2000	72.2178
737.1000	72.4949
737.0000	72.5599
736.9000	72.2774
736.8000	72.4498
736.7000	72.652
736.6000	72.4835
736.5000	72.4518
736.4000	72.673
736.3000	72.7996
736.2000	72.6112
736.1000	72.794
736.0000	73.1588
735.9000	73.1731
735.8000	73.143
735.7000	73.5053
735.6000	73.6807
735.5000	73.554
735.4000	73.7398
735.3000	74.1138
735.2000	74.0394
735.1000	74.0859
735.0000	74.5596
734.9000	74.728
734.8000	74.6736
734.7000	74.89
734.6000	75.2586
734.5000	75.2215
734.4000	75.1618
734.3000	75.5203
734.2000	75.6251
734.1000	75.5662
734.0000	75.7507
733.9000	76.1257
733.8000	76.1353
733.7000	76.2011
733.6000	76.5728
733.5000	76.7534
733.4000	76.6301
733.3000	76.8828
733.2000	77.1669
733.1000	77.1312
733.0000	77.1589
732.9000	77.5139
732.8000	77.6687
732.7000	77.5733
732.6000	77.8823
732.5000	78.1745
732.4000	78.1751
732.3000	78.2306
732.2000	78.5804
732.1000	78.6744
732.0000	78.6109
731.9000	78.8078
731.8000	79.099
731.7000	79.0452
731.6000	79.0798
731.5000	79.3545
731.4000	79.3388
731.3000	79.2611
731.2000	79.4597
731.1000	79.6885
731.0000	79.5628
730.9000	79.5964
730.8000	79.8156
730.7000	79.7825
730.6000	79.6724
730.5000	79.8585
730.4000	80.0579
730.3000	79.9669
730.2000	79.9104
730.1000	80.1424
730.0000	80.1838
729.9000	80.1421
729.8000	80.3519
729.7000	80.465
729.6000	80.3832
729.5000	80.4182
729.4000	80.6332
729.3000	80.6152
729.2000	80.5416
729.1000	80.7026
729.0000	80.7538
728.9000	80.6193
728.8000	80.6873
728.7000	80.8081
728.6000	80.85
728.5000	80.7103
728.4000	80.7756
728.3000	80.7962
728.2000	80.6894
728.1000	80.6093
728.0000	80.7106
727.9000	80.6233
727.8000	80.5198
727.7000	80.5496
727.6000	80.5119
727.5000	80.443
727.4000	80.4672
727.3000	80.48
727.2000	80.3128
727.1000	80.2455
727.0000	80.1015
726.9000	80.0941
726.8000	79.9533
726.7000	79.8098
726.6000	79.7685
726.5000	79.6877
726.4000	79.5027
726.3000	79.4461
726.2000	79.3376
726.1000	79.1843
726.0000	79.073
725.9000	78.9715
725.8000	78.8708
725.7000	78.7191
725.6000	78.5729
725.5000	78.4272
725.4000	78.3716
725.3000	78.1642
725.2000	78.0811
725.1000	77.9884
725.0000	77.7943
724.9000	77.6247
724.8000	77.4987
724.7000	77.3145
724.6000	77.1358
724.5000	77.0167
724.4000	76.8813
724.3000	76.6162
724.2000	76.4236
724.1000	76.3347
724.0000	76.1414
723.9000	75.9842
723.8000	75.9048
723.7000	75.7402
723.6000	75.4519
723.5000	75.3292
723.4000	75.249
723.3000	75.0902
723.2000	74.9418
723.1000	74.8772
723.0000	74.6582
722.9000	74.4437
722.8000	74.3487
722.7000	74.1991
722.6000	73.9661
722.5000	73.8465
722.4000	73.8209
722.3000	73.5261
722.2000	73.3288
722.1000	73.3544
722.0000	73.2757
721.9000	73.0648
721.8000	72.967
721.7000	72.9129
721.6000	72.6588
721.5000	72.5454
721.4000	72.6138
721.3000	72.4633
721.2000	72.2443
721.1000	72.355
721.0000	72.2411
720.9000	71.9808
720.8000	71.9397
720.7000	72.0319
720.6000	71.8311
720.5000	71.6994
720.4000	71.7562
720.3000	71.6562
720.2000	71.4587
720.1000	71.5437
720.0000	71.5616
719.9000	71.3208
719.8000	71.2988
719.7000	71.3837
719.6000	71.3583
719.5000	71.1659
719.4000	71.3113
719.3000	71.3283
719.2000	71.1767
719.1000	71.2447
719.0000	71.3073
718.9000	71.2028
718.8000	71.192
718.7000	71.2914
718.6000	71.2665
718.5000	71.0812
718.4000	71.2255
718.3000	71.3512
718.2000	71.2016
718.1000	71.2476
718.0000	71.3615
717.9000	71.3152
717.8000	71.2666
717.7000	71.45
717.6000	71.5021
717.5000	71.3989
717.4000	71.5984
717.3000	71.7099
717.2000	71.5922
717.1000	71.7267
717.0000	71.9886
716.9000	72.0356
716.8000	72.0646
716.7000	72.2543
716.6000	72.3284
716.5000	72.2891
716.4000	72.484
716.3000	72.7285
716.2000	72.7479
716.1000	72.8207
716.0000	73.0259
715.9000	73.1387
715.8000	73.1487
715.7000	73.3789
715.6000	73.5541
715.5000	73.5517
715.4000	73.7028
715.3000	73.8975
715.2000	73.9198
715.1000	74.0934
715.0000	74.3515
714.9000	74.4784
714.8000	74.5217
714.7000	74.7241
714.6000	74.9223
714.5000	75.0423
714.4000	75.2921
714.3000	75.4821
714.2000	75.5875
714.1000	75.6875
714.0000	75.8818
713.9000	76.0409
713.8000	76.1431
713.7000	76.338
713.6000	76.4904
713.5000	76.5491
713.4000	76.7647
713.3000	76.8988
713.2000	76.9812
713.1000	77.1523
713.0000	77.2611
712.9000	77.3608
712.8000	77.4712
712.7000	77.6598
712.6000	77.7637
712.5000	77.8979
712.4000	78.1089
712.3000	78.2182
712.2000	78.297
712.1000	78.4643
712.0000	78.5893
711.9000	78.6436
711.8000	78.7569
711.7000	78.9132
711.6000	79.0315
711.5000	79.0782
711.4000	79.2465
711.3000	79.2912
711.2000	79.2287
711.1000	79.2939
711.0000	79.3851
710.9000	79.4505
710.8000	79.5302
710.7000	79.6478
710.6000	79.6884
710.5000	79.7757
710.4000	79.8023
710.3000	79.7984
710.2000	79.7654
710.1000	79.8288
710.0000	79.8215
709.9000	79.8236
709.8000	79.812
709.7000	79.866
709.6000	79.9221
709.5000	79.8909
709.4000	79.9301
709.3000	79.8544
709.2000	79.8451
709.1000	79.8428
709.0000	79.7903
708.9000	79.6792
708.8000	79.7279
708.7000	79.7724
708.6000	79.7476
708.5000	79.7353
708.4000	79.7074
708.3000	79.5931
708.2000	79.5892
708.1000	79.5836
708.0000	79.5195
707.9000	79.4872
707.8000	79.4191
707.7000	79.3699
707.6000	79.2315
707.5000	79.158
707.4000	79.1181
707.3000	79.0208
707.2000	78.944
707.1000	78.8571
707.0000	78.7397
706.9000	78.6258
706.8000	78.5984
706.7000	78.5605
706.6000	78.3989
706.5000	78.279
706.4000	78.1003
706.3000	77.9327
706.2000	77.8338
706.1000	77.7131
706.0000	77.5374
705.9000	77.3651
705.8000	77.2354
705.7000	77.0928
705.6000	76.8661
705.5000	76.7304
705.4000	76.5681
705.3000	76.3728
705.2000	76.216
705.1000	76.0114
705.0000	75.7958
704.9000	75.5999
704.8000	75.5262
704.7000	75.2937
704.6000	75.1029
704.5000	74.9448
704.4000	74.79
704.3000	74.6438
704.2000	74.53
704.1000	74.3319
704.0000	74.2153
703.9000	74.0914
703.8000	73.9
703.7000	73.746
703.6000	73.6099
703.5000	73.4883
703.4000	73.3441
703.3000	73.1955
703.2000	73.0508
703.1000	72.8982
703.0000	72.8253
702.9000	72.7313
702.8000	72.5332
702.7000	72.3946
702.6000	72.3089
702.5000	72.1398
702.4000	72.0477
702.3000	71.9717
702.2000	71.8299
702.1000	71.6779
702.0000	71.5791
701.9000	71.4082
701.8000	71.3335
701.7000	71.3642
701.6000	71.2495
701.5000	71.1843
701.4000	71.1408
701.3000	71.0788
701.2000	71.0297
701.1000	71.0645
701.0000	70.9293
700.9000	70.8734
700.8000	70.866
700.7000	70.8017
700.6000	70.6998
700.5000	70.7785
700.4000	70.7775
700.3000	70.7148
700.2000	70.7747
700.1000	70.7679
700.0000	70.6953
699.9000	70.7516
699.8000	70.8081
699.7000	70.7557
699.6000	70.81
699.5000	70.8922
699.4000	70.9068
699.3000	70.9405
699.2000	71.0672
699.1000	71.0383
699.0000	71.1481
698.9000	71.2515
698.8000	71.2534
698.7000	71.3412
698.6000	71.4205
698.5000	71.4575
698.4000	71.5265
698.3000	71.6488
698.2000	71.6956
698.1000	71.714
698.0000	71.8561
697.9000	71.9068
697.8000	72.0114
697.7000	72.1597
697.6000	72.2668
697.5000	72.3706
697.4000	72.5201
697.3000	72.6522
697.2000	72.7901
697.1000	72.9403
697.0000	73.1244
696.9000	73.2294
696.8000	73.3502
696.7000	73.5106
696.6000	73.6374
696.5000	73.7801
696.4000	73.9967
696.3000	74.133
696.2000	74.2065
696.1000	74.4592
696.0000	74.5926
695.9000	74.7084
695.8000	74.8633
695.7000	75.0221
695.6000	75.0856
695.5000	75.2527
695.4000	75.414
695.3000	75.5099
695.2000	75.7115
695.1000	75.9287
695.0000	75.9892
694.9000	76.1883
694.8000	76.3805
694.7000	76.5019
694.6000	76.6798
694.5000	76.846
694.4000	76.9358
694.3000	77.0638
694.2000	77.2959
694.1000	77.4088
694.0000	77.546
693.9000	77.7821
693.8000	77.8952
693.7000	78.0152
693.6000	78.2048
693.5000	78.2675
693.4000	78.3439
693.3000	78.4991
693.2000	78.5809
693.1000	78.6297
693.0000	78.7867
692.9000	78.9002
692.8000	78.9326
692.7000	79.0693
692.6000	79.169
692.5000	79.1528
692.4000	79.2531
692.3000	79.2864
692.2000	79.3052
692.1000	79.3701
692.0000	79.4717
691.9000	79.4471
691.8000	79.5634
691.7000	79.6739
691.6000	79.6725
691.5000	79.7323
691.4000	79.822
691.3000	79.7155
691.2000	79.7156
691.1000	79.812
691.0000	79.7229
690.9000	79.728
690.8000	79.7863
690.7000	79.7218
690.6000	79.6997
690.5000	79.7411
690.4000	79.616
690.3000	79.5809
690.2000	79.5614
690.1000	79.4415
690.0000	79.3139
689.9000	79.2462
689.8000	79.0812
689.7000	79.0041
689.6000	78.9445
689.5000	78.7848
689.4000	78.6808
689.3000	78.6124
689.2000	78.4557
689.1000	78.3647
689.0000	78.2605
688.9000	78.0746
688.8000	77.9679
688.7000	77.8877
688.6000	77.6989
688.5000	77.5286
688.4000	77.4321
688.3000	77.2715
688.2000	77.205
688.1000	77.0919
688.0000	76.9268
687.9000	76.8297
687.8000	76.7115
687.7000	76.5439
687.6000	76.3998
687.5000	76.1934
687.4000	75.9616
687.3000	75.8788
687.2000	75.7259
687.1000	75.5035
687.0000	75.3825
686.9000	75.2285
686.8000	74.9925
686.7000	74.8887
686.6000	74.7106
686.5000	74.5066
686.4000	74.4553
686.3000	74.2633
686.2000	74.0575
686.1000	73.907
686.0000	73.7825
685.9000	73.6363
685.8000	73.5678
685.7000	73.4155
685.6000	73.1608
685.5000	73.0534
685.4000	72.9358
685.3000	72.7536
685.2000	72.6915
685.1000	72.5433
685.0000	72.3275
684.9000	72.2265
684.8000	72.0868
684.7000	71.8836
684.6000	71.754
684.5000	71.7064
684.4000	71.5045
684.3000	71.4523
684.2000	71.3244
684.1000	71.1304
684.0000	71.1348
683.9000	71.1145
683.8000	70.9473
683.7000	70.9533
683.6000	70.9228
683.5000	70.762
683.4000	70.7563
683.3000	70.749
683.2000	70.6168
683.1000	70.6345
683.0000	70.7421
682.9000	70.5994
682.8000	70.6453
682.7000	70.7091
682.6000	70.6557
682.5000	70.7028
682.4000	70.8129
682.3000	70.7022
682.2000	70.7355
682.1000	70.8094
682.0000	70.7038
681.9000	70.8058
681.8000	70.9328
681.7000	70.9098
681.6000	70.9606
681.5000	71.0891
681.4000	71.0178
681.3000	71.158
681.2000	71.2838
681.1000	71.2169
681.0000	71.3006
680.9000	71.4901
680.8000	71.4362
680.7000	71.574
680.6000	71.8197
680.5000	71.8118
680.4000	71.979
680.3000	72.1458
680.2000	72.109
680.1000	72.2336
680.0000	72.4773
679.9000	72.4961
679.8000	72.6663
679.7000	72.8075
679.6000	72.79
679.5000	72.9706
679.4000	73.2022
679.3000	73.178
679.2000	73.3842
679.1000	73.6375
679.0000	73.6111
678.9000	73.827
678.8000	74.0559
678.7000	74.1107
678.6000	74.3216
678.5000	74.5985
678.4000	74.6096
678.3000	74.8923
678.2000	75.0697
678.1000	75.1168
678.0000	75.4108
677.9000	75.6019
677.8000	75.6317
677.7000	75.8782
677.6000	76.0469
677.5000	76.0591
677.4000	76.3162
677.3000	76.4858
677.2000	76.5268
677.1000	76.7955
677.0000	76.957
676.9000	76.9549
676.8000	77.2363
676.7000	77.3662
676.6000	77.4278
676.5000	77.7411
676.4000	77.845
676.3000	77.8801
676.2000	78.1299
676.1000	78.3015
676.0000	78.3485
675.9000	78.5238
675.8000	78.6368
675.7000	78.5921
675.6000	78.8255
675.5000	78.8682
675.4000	78.8798
675.3000	79.0942
675.2000	79.1096
675.1000	79.0647
675.0000	79.2583
674.9000	79.1975
674.8000	79.2279
674.7000	79.4499
674.6000	79.4369
674.5000	79.3906
674.4000	79.5178
674.3000	79.4806
674.2000	79.4642
674.1000	79.7035
674.0000	79.6562
673.9000	79.6068
673.8000	79.6943
673.7000	79.6441
673.6000	79.6036
673.5000	79.6726
673.4000	79.5556
673.3000	79.5255
673.2000	79.5246
673.1000	79.354
673.0000	79.3748
672.9000	79.3818
672.8000	79.2759
672.7000	79.2829
672.6000	79.2443
672.5000	79.0723
672.4000	78.997
672.3000	78.9103
672.2000	78.7867
672.1000	78.6545
672.0000	78.5465
671.9000	78.4188
671.8000	78.3246
671.7000	78.2023
671.6000	78.0365
671.5000	77.9238
671.4000	77.6872
671.3000	77.5195
671.2000	77.3824
671.1000	77.2251
671.0000	77.0143
670.9000	76.867
670.8000	76.6805
670.7000	76.5701
670.6000	76.3779
670.5000	76.2121
670.4000	76.089
670.3000	75.8884
670.2000	75.7255
670.1000	75.5898
670.0000	75.3652
669.9000	75.2314
669.8000	75.1015
669.7000	74.9228
669.6000	74.7724
669.5000	74.5484
669.4000	74.4089
669.3000	74.2511
669.2000	74.0908
669.1000	73.9175
669.0000	73.8434
668.9000	73.6616
668.8000	73.4691
668.7000	73.3627
668.6000	73.1393
668.5000	72.942
668.4000	72.9223
668.3000	72.6855
668.2000	72.5814
668.1000	72.4558
668.0000	72.2391
667.9000	72.1968
667.8000	72.0907
667.7000	71.8903
667.6000	71.8365
667.5000	71.6724
667.4000	71.4533
667.3000	71.4378
667.2000	71.3337
667.1000	71.1761
667.0000	71.2155
666.9000	71.135
666.8000	70.9655
666.7000	71.0099
666.6000	70.871
666.5000	70.7873
666.4000	70.8373
666.3000	70.7002
666.2000	70.6925
666.1000	70.7728
666.0000	70.6188
665.9000	70.6896
665.8000	70.7338
665.7000	70.6105
665.6000	70.6679
665.5000	70.7216
665.4000	70.6334
665.3000	70.7696
665.2000	70.8196
665.1000	70.7459
665.0000	70.9147
664.9000	70.9473
664.8000	70.9045
664.7000	71.1052
664.6000	71.0717
664.5000	71.1056
664.4000	71.292
664.3000	71.2531
664.2000	71.3911
664.1000	71.5628
664.0000	71.5451
663.9000	71.708
663.8000	71.8705
663.7000	71.846
663.6000	72.0439
663.5000	72.2121
663.4000	72.2161
663.3000	72.4011
663.2000	72.5652
663.1000	72.5954
663.0000	72.8713
662.9000	72.9316
662.8000	73.0184
662.7000	73.32
662.6000	73.3699
662.5000	73.5329
662.4000	73.7749
662.3000	73.8102
662.2000	74.0477
662.1000	74.2767
662.0000	74.3376
661.9000	74.5784
661.8000	74.7532
661.7000	74.8543
661.6000	75.1171
661.5000	75.2214
661.4000	75.3118
661.3000	75.5764
661.2000	75.6922
661.1000	75.8021
661.0000	76.0701
660.9000	76.1527
660.8000	76.3963
660.7000	76.6243
660.6000	76.6016
660.5000	76.8406
660.4000	76.9907
660.3000	77.0458
660.2000	77.3074
660.1000	77.4518
660.0000	77.5205
659.9000	77.8277
659.8000	77.89
659.7000	78.0134
659.6000	78.2448
659.5000	78.2846
659.4000	78.4011
659.3000	78.5681
659.2000	78.5523
659.1000	78.7032
659.0000	78.8354
658.9000	78.8505
658.8000	79.0635
658.7000	79.1333
658.6000	79.1779
658.5000	79.3552
658.4000	79.3842
658.3000	79.4217
658.2000	79.5306
658.1000	79.4834
658.0000	79.5453
657.9000	79.612
657.8000	79.5617
657.7000	79.6685
657.6000	79.7128
657.5000	79.6513
657.4000	79.7316
657.3000	79.6974
657.2000	79.6212
657.1000	79.7089
657.0000	79.5765
656.9000	79.5052
656.8000	79.4877
656.7000	79.3557
656.6000	79.3492
656.5000	79.3602
656.4000	79.2093
656.3000	79.2066
656.2000	79.132
656.1000	78.9807
656.0000	78.8963
655.9000	78.8026
655.8000	78.6538
655.7000	78.555
655.6000	78.3936
655.5000	78.2265
655.4000	78.1592
655.3000	77.9976
655.2000	77.8579
655.1000	77.731
655.0000	77.5246
654.9000	77.3185
654.8000	77.1647
654.7000	76.9623
654.6000	76.8464
654.5000	76.6892
654.4000	76.4691
654.3000	76.2972
654.2000	76.1675
654.1000	75.956
654.0000	75.8208
653.9000	75.6298
653.8000	75.3974
653.7000	75.2295
653.6000	75.0533
653.5000	74.8657
653.4000	74.7199
653.3000	74.5465
653.2000	74.3561
653.1000	74.1856
653.0000	74.0103
652.9000	73.8415
652.8000	73.7045
652.7000	73.5093
652.6000	73.3854
652.5000	73.2219
652.4000	73.046
652.3000	72.9157
652.2000	72.7929
652.1000	72.6852
652.0000	72.5223
651.9000	72.3696
651.8000	72.2566
651.7000	72.1072
651.6000	72.0365
651.5000	71.9319
651.4000	71.7808
651.3000	71.6975
651.2000	71.6517
651.1000	71.557
651.0000	71.4959
650.9000	71.4313
650.8000	71.3629
650.7000	71.3008
650.6000	71.1819
650.5000	71.1252
650.4000	71.1421
650.3000	71.0737
650.2000	71.0596
650.1000	71.0924
650.0000	71.0018
649.9000	71.0478
649.8000	71.0506
649.7000	70.9922
649.6000	70.9761
649.5000	70.9693
649.4000	70.9509
649.3000	71.0299
649.2000	71.0687
649.1000	71.1744
649.0000	71.2609
648.9000	71.268
648.8000	71.3717
648.7000	71.4276
648.6000	71.4784
648.5000	71.6134
648.4000	71.7216
648.3000	71.8337
648.2000	71.9676
648.1000	72.0826
648.0000	72.2457
647.9000	72.3817
647.8000	72.5142
647.7000	72.6364
647.6000	72.7529
647.5000	72.8803
647.4000	73.043
647.3000	73.208
647.2000	73.3752
647.1000	73.533
647.0000	73.6657
646.9000	73.8337
646.8000	73.9664
646.7000	74.09
646.6000	74.2764
646.5000	74.3987
646.4000	74.6026
646.3000	74.7639
646.2000	74.9024
646.1000	75.1283
646.0000	75.2941
645.9000	75.4422
645.8000	75.6226
645.7000	75.7133
645.6000	75.8243
645.5000	76.0253
645.4000	76.2136
645.3000	76.4251
645.2000	76.5661
645.1000	76.7569
645.0000	76.9143
644.9000	77.1206
644.8000	77.2104
644.7000	77.3938
644.6000	77.5573
644.5000	77.7295
644.4000	77.8507
644.3000	77.9905
644.2000	78.2026
644.1000	78.3456
644.0000	78.5277
643.9000	78.6501
643.8000	78.7658
643.7000	78.8468
643.6000	79.0088
643.5000	79.11
643.4000	79.2218
643.3000	79.3222
643.2000	79.4227
643.1000	79.5423
643.0000	79.5979
642.9000	79.5919
642.8000	79.6678
642.7000	79.6972
642.6000	79.6604
642.5000	79.8363
642.4000	79.8414
642.3000	79.8886
642.2000	79.9819
642.1000	79.9145
642.0000	79.95
641.9000	79.9056
641.8000	79.8506
641.7000	79.8112
641.6000	79.7309
641.5000	79.6783
641.4000	79.6421
641.3000	79.5689
641.2000	79.5656
641.1000	79.4886
641.0000	79.4173
640.9000	79.3096
640.8000	79.1539
640.7000	79.0902
640.6000	78.9182
640.5000	78.8146
640.4000	78.7379
640.3000	78.6241
640.2000	78.5472
640.1000	78.4667
640.0000	78.3121
639.9000	78.1792
639.8000	78.0068
639.7000	77.8718
639.6000	77.6803
639.5000	77.506
639.4000	77.3667
639.3000	77.1734
639.2000	77.0174
639.1000	76.8255
639.0000	76.5936
638.9000	76.4267
638.8000	76.233
638.7000	76.0394
638.6000	75.8414
638.5000	75.6296
638.4000	75.4864
638.3000	75.3346
638.2000	75.1654
638.1000	74.9974
638.0000	74.8139
637.9000	74.6658
637.8000	74.5228
637.7000	74.3175
637.6000	74.1796
637.5000	74.0267
637.4000	73.892
637.3000	73.7718
637.2000	73.5748
637.1000	73.3907
637.0000	73.1949
636.9000	73.0227
636.8000	72.9575
636.7000	72.7569
636.6000	72.6644
636.5000	72.573
636.4000	72.4335
636.3000	72.3354
636.2000	72.1919
636.1000	72.0932
636.0000	72.007
635.9000	71.912
635.8000	71.918
635.7000	71.8425
635.6000	71.7756
635.5000	71.7818
635.4000	71.7763
635.3000	71.7741
635.2000	71.7004
635.1000	71.6596
635.0000	71.6489
634.9000	71.5854
634.8000	71.6192
634.7000	71.6341
634.6000	71.6294
634.5000	71.7
634.4000	71.6975
634.3000	71.7376
634.2000	71.7311
634.1000	71.7572
634.0000	71.8633
633.9000	71.9665
633.8000	72.0156
633.7000	72.1233
633.6000	72.1402
633.5000	72.2652
633.4000	72.3831
633.3000	72.453
633.2000	72.6547
633.1000	72.7421
633.0000	72.8546
632.9000	73.0005
632.8000	73.0633
632.7000	73.214
632.6000	73.3732
632.5000	73.4957
632.4000	73.649
632.3000	73.7002
632.2000	73.8376
632.1000	74.007
632.0000	74.1315
631.9000	74.3653
631.8000	74.4758
631.7000	74.6208
631.6000	74.7791
631.5000	74.881
631.4000	75.1057
631.3000	75.2767
631.2000	75.4846
631.1000	75.721
631.0000	75.8107
630.9000	76.0229
630.8000	76.2273
630.7000	76.3676
630.6000	76.6287
630.5000	76.6912
630.4000	76.9124
630.3000	77.0869
630.2000	77.1944
630.1000	77.4543
630.0000	77.5182
629.9000	77.697
629.8000	77.9153
629.7000	77.9555
629.6000	78.1571
629.5000	78.2899
629.4000	78.4722
629.3000	78.6581
629.2000	78.718
629.1000	78.8855
629.0000	79.0134
628.9000	79.1396
628.8000	79.2917
628.7000	79.3271
628.6000	79.5017
628.5000	79.572
628.4000	79.6191
628.3000	79.7739
628.2000	79.7611
628.1000	79.9122
628.0000	80.0147
627.9000	79.9506
627.8000	80.0507
627.7000	79.9891
627.6000	80.0092
627.5000	80.0845
627.4000	79.9742
627.3000	80.0897
627.2000	80.0518
627.1000	80.0457
627.0000	80.0546
626.9000	79.9724
626.8000	80.0347
626.7000	79.9465
626.6000	79.9147
626.5000	79.8579
626.4000	79.6912
626.3000	79.7041
626.2000	79.5615
626.1000	79.4912
626.0000	79.4432
625.9000	79.318
625.8000	79.2895
625.7000	79.1209
625.6000	78.9858
625.5000	78.8663
625.4000	78.6965
625.3000	78.595
625.2000	78.4383
625.1000	78.3049
625.0000	78.1286
624.9000	77.9244
624.8000	77.8201
624.7000	77.6204
624.6000	77.4855
624.5000	77.3557
624.4000	77.1376
624.3000	76.9535
624.2000	76.7356
624.1000	76.5828
624.0000	76.4464
623.9000	76.2516
623.8000	76.098
623.7000	75.8957
623.6000	75.7005
623.5000	75.4738
623.4000	75.3149
623.3000	75.1825
623.2000	74.9852
623.1000	74.8421
623.0000	74.6357
622.9000	74.4631
622.8000	74.3169
622.7000	74.1171
622.6000	74.0453
622.5000	73.834
622.4000	73.6915
622.3000	73.5462
622.2000	73.3665
622.1000	73.3152
622.0000	73.1779
621.9000	73.1352
621.8000	73.0021
621.7000	72.8744
621.6000	72.8181
621.5000	72.6906
621.4000	72.6959
621.3000	72.6013
621.2000	72.5533
621.1000	72.5689
621.0000	72.4091
620.9000	72.4151
620.8000	72.3384
620.7000	72.304
620.6000	72.3125
620.5000	72.2277
620.4000	72.3063
620.3000	72.238
620.2000	72.2635
620.1000	72.3467
620.0000	72.315
619.9000	72.421
619.8000	72.3652
619.7000	72.4366
619.6000	72.5244
619.5000	72.5412
619.4000	72.743
619.3000	72.7907
619.2000	72.8798
619.1000	73.0886
619.0000	73.1495
618.9000	73.3391
618.8000	73.3624
618.7000	73.5293
618.6000	73.6998
618.5000	73.709
618.4000	73.8958
618.3000	73.9478
618.2000	74.1066
618.1000	74.2647
618.0000	74.3104
617.9000	74.5261
617.8000	74.5736
617.7000	74.772
617.6000	74.9452
617.5000	74.9793
617.4000	75.2761
617.3000	75.3609
617.2000	75.5845
617.1000	75.7675
617.0000	75.8739
616.9000	76.175
616.8000	76.317
616.7000	76.5546
616.6000	76.7987
616.5000	76.9141
616.4000	77.2248
616.3000	77.3033
616.2000	77.5368
616.1000	77.674
616.0000	77.8238
615.9000	78.0794
615.8000	78.075
615.7000	78.2753
615.6000	78.4182
615.5000	78.5589
615.4000	78.8027
615.3000	78.847
615.2000	79.0606
615.1000	79.1368
615.0000	79.2466
614.9000	79.4293
614.8000	79.4758
614.7000	79.6764
614.6000	79.7094
614.5000	79.8635
614.4000	80.0144
614.3000	80.1129
614.2000	80.3171
614.1000	80.3275
614.0000	80.4321
613.9000	80.417
613.8000	80.3961
613.7000	80.4973
613.6000	80.436
613.5000	80.5044
613.4000	80.4597
613.3000	80.4656
613.2000	80.4538
613.1000	80.408
613.0000	80.4133
612.9000	80.2852
612.8000	80.237
612.7000	80.0758
612.6000	79.9606
612.5000	79.9615
612.4000	79.828
612.3000	79.7757
612.2000	79.6355
612.1000	79.5342
612.0000	79.4312
611.9000	79.3631
611.8000	79.2586
611.7000	79.1327
611.6000	79.0336
611.5000	78.9016
611.4000	78.8073
611.3000	78.706
611.2000	78.5352
611.1000	78.4132
611.0000	78.2524
610.9000	78.0837
610.8000	77.9475
610.7000	77.794
610.6000	77.6891
610.5000	77.5111
610.4000	77.3427
610.3000	77.1209
610.2000	76.9354
610.1000	76.7066
610.0000	76.4904
609.9000	76.2657
609.8000	76.0572
609.7000	75.8954
609.6000	75.7128
609.5000	75.5821
609.4000	75.382
609.3000	75.1902
609.2000	74.9935
609.1000	74.886
609.0000	74.712
608.9000	74.5546
608.8000	74.4214
608.7000	74.2229
608.6000	74.1195
608.5000	73.9725
608.4000	73.8932
608.3000	73.8246
608.2000	73.7083
608.1000	73.5901
608.0000	73.4793
607.9000	73.4047
607.8000	73.3369
607.7000	73.3241
607.6000	73.2259
607.5000	73.1162
607.4000	73.0685
607.3000	72.9741
607.2000	72.9927
607.1000	73.0188
607.0000	73.0175
606.9000	73.0866
606.8000	73.0748
606.7000	73.1202
606.6000	73.0594
606.5000	73.1467
606.4000	73.1575
606.3000	73.2116
606.2000	73.2712
606.1000	73.2567
606.0000	73.4178
605.9000	73.4895
605.8000	73.6091
605.7000	73.7107
605.6000	73.7829
605.5000	73.9113
605.4000	73.9539
605.3000	74.0485
605.2000	74.1107
605.1000	74.2558
605.0000	74.4598
604.9000	74.4991
604.8000	74.6963
604.7000	74.773
604.6000	74.9589
604.5000	75.0916
604.4000	75.2224
604.3000	75.4029
604.2000	75.5024
604.1000	75.7384
604.0000	75.8371
603.9000	76.0209
603.8000	76.1738
603.7000	76.3775
603.6000	76.5934
603.5000	76.6997
603.4000	76.9256
603.3000	77.1445
603.2000	77.3815
603.1000	77.5541
603.0000	77.7497
602.9000	77.9606
602.8000	78.1199
602.7000	78.35
602.6000	78.4895
602.5000	78.7271
602.4000	78.9022
602.3000	79.0683
602.2000	79.2406
602.1000	79.3547
602.0000	79.577
601.9000	79.6454
601.8000	79.7906
601.7000	79.8734
601.6000	79.9708
601.5000	80.0609
601.4000	80.1479
601.3000	80.2532
601.2000	80.3245
601.1000	80.3714
601.0000	80.4958
600.9000	80.4939
600.8000	80.5224
600.7000	80.5466
600.6000	80.6082
600.5000	80.6467
600.4000	80.6185
600.3000	80.6912
600.2000	80.73
600.1000	80.7839
600.0000	80.8187
599.9000	80.7957
599.8000	80.7895
599.7000	80.7688
599.6000	80.7205
599.5000	80.6425
599.4000	80.5692
599.3000	80.4517
599.2000	80.3494
599.1000	80.229
599.0000	80.1219
598.9000	80.0315
598.8000	79.9309
598.7000	79.8797
598.6000	79.7414
598.5000	79.6381
598.4000	79.4953
598.3000	79.3466
598.2000	79.1871
598.1000	78.9783
598.0000	78.874
597.9000	78.7037
597.8000	78.5539
597.7000	78.3955
597.6000	78.2415
597.5000	78.0364
597.4000	77.8927
597.3000	77.7188
597.2000	77.5144
597.1000	77.3244
597.0000	77.119
596.9000	76.9194
596.8000	76.6934
596.7000	76.5138
596.6000	76.3233
596.5000	76.1586
596.4000	75.982
596.3000	75.7895
596.2000	75.6718
596.1000	75.4889
596.0000	75.363
595.9000	75.24
595.8000	75.0758
595.7000	74.9197
595.6000	74.7911
595.5000	74.6823
595.4000	74.5775
595.3000	74.5281
595.2000	74.4269
595.1000	74.375
595.0000	74.2914
594.9000	74.2358
594.8000	74.1227
594.7000	74.0572
594.6000	73.9788
594.5000	73.9411
594.4000	73.8884
594.3000	73.8568
594.2000	73.9048
594.1000	73.8631
594.0000	73.9313
593.9000	73.9228
593.8000	73.9557
593.7000	73.9282
593.6000	73.9447
593.5000	73.9866
593.4000	73.9811
593.3000	74.0666
593.2000	74.1251
593.1000	74.2906
593.0000	74.334
592.9000	74.4874
592.8000	74.5571
592.7000	74.6367
592.6000	74.7166
592.5000	74.8749
592.4000	74.9805
592.3000	75.0589
592.2000	75.2363
592.1000	75.3306
592.0000	75.549
591.9000	75.643
591.8000	75.8671
591.7000	76.0036
591.6000	76.1314
591.5000	76.2794
591.4000	76.4168
591.3000	76.5786
591.2000	76.7309
591.1000	76.9671
591.0000	77.1275
590.9000	77.2885
590.8000	77.4312
590.7000	77.6522
590.6000	77.812
590.5000	78.0047
590.4000	78.1793
590.3000	78.3536
590.2000	78.5441
590.1000	78.6764
590.0000	78.8756
589.9000	78.9938
589.8000	79.2046
589.7000	79.3348
589.6000	79.5286
589.5000	79.7184
589.4000	79.799
589.3000	79.9968
589.2000	80.0766
589.1000	80.2348
589.0000	80.2985
588.9000	80.3977
588.8000	80.481
588.7000	80.5778
588.6000	80.6979
588.5000	80.8058
588.4000	80.9767
588.3000	80.9868
588.2000	81.0996
588.1000	81.1513
588.0000	81.2137
587.9000	81.1739
587.8000	81.2382
587.7000	81.2452
587.6000	81.2457
587.5000	81.2368
587.4000	81.2193
587.3000	81.2817
587.2000	81.2467
587.1000	81.2384
587.0000	81.156
586.9000	81.0757
586.8000	80.9399
586.7000	80.8976
586.6000	80.7899
586.5000	80.6498
586.4000	80.5339
586.3000	80.4001
586.2000	80.316
586.1000	80.1319
586.0000	80.0629
585.9000	79.9207
585.8000	79.7972
585.7000	79.5847
585.6000	79.4162
585.5000	79.2422
585.4000	79.0504
585.3000	78.8981
585.2000	78.7339
585.1000	78.5694
585.0000	78.3908
584.9000	78.2489
584.8000	78.0898
584.7000	77.9524
584.6000	77.7595
584.5000	77.6138
584.4000	77.4268
584.3000	77.3124
584.2000	77.1171
584.1000	77.0063
584.0000	76.8448
583.9000	76.7052
583.8000	76.5141
583.7000	76.3319
583.6000	76.1397
583.5000	76.0085
583.4000	75.8536
583.3000	75.7017
583.2000	75.5879
583.1000	75.4244
583.0000	75.3402
582.9000	75.2077
582.8000	75.1419
582.7000	74.9937
582.6000	74.9622
582.5000	74.8941
582.4000	74.864
582.3000	74.8155
582.2000	74.7995
582.1000	74.8139
582.0000	74.8067
581.9000	74.8181
581.8000	74.7651
581.7000	74.791
581.6000	74.7749
581.5000	74.8205
581.4000	74.8071
581.3000	74.9009
581.2000	74.9132
581.1000	74.9781
581.0000	75.0302
580.9000	75.0965
580.8000	75.1823
580.7000	75.2712
580.6000	75.3967
580.5000	75.4687
580.4000	75.6466
580.3000	75.6701
580.2000	75.8726
580.1000	75.9416
580.0000	76.0957
579.9000	76.1806
579.8000	76.339
579.7000	76.4081
579.6000	76.6023
579.5000	76.7561
579.4000	76.9101
579.3000	77.0834
579.2000	77.1915
579.1000	77.4097
579.0000	77.5153
578.9000	77.728
578.8000	77.8376
578.7000	78.1224
578.6000	78.2887
578.5000	78.518
578.4000	78.625
578.3000	78.869
578.2000	79.0609
578.1000	79.293
578.0000	79.4477
577.9000	79.5989
577.8000	79.7668
577.7000	79.8212
577.6000	80.0399
577.5000	80.0591
577.4000	80.2446
577.3000	80.3199
577.2000	80.4893
577.1000	80.5287
577.0000	80.6698
576.9000	80.7624
576.8000	80.9208
576.7000	80.9812
576.6000	81.0914
576.5000	81.1687
576.4000	81.1758
576.3000	81.3081
576.2000	81.2929
576.1000	81.4583
576.0000	81.4199
575.9000	81.5182
575.8000	81.4954
575.7000	81.5681
575.6000	81.5298
575.5000	81.554
575.4000	81.5261
575.3000	81.471
575.2000	81.4552
575.1000	81.4446
575.0000	81.4006
574.9000	81.2986
574.8000	81.315
574.7000	81.1452
574.6000	81.1255
574.5000	80.9804
574.4000	80.9431
574.3000	80.8263
574.2000	80.7997
574.1000	80.6536
574.0000	80.5412
573.9000	80.3834
573.8000	80.2115
573.7000	80.0918
573.6000	79.8917
573.5000	79.7039
573.4000	79.5056
573.3000	79.349
573.2000	79.1598
573.1000	79.022
573.0000	78.8781
572.9000	78.7324
572.8000	78.4942
572.7000	78.3176
572.6000	78.1424
572.5000	77.9414
572.4000	77.7573
572.3000	77.6043
572.2000	77.4787
572.1000	77.3193
572.0000	77.1975
571.9000	77.0411
571.8000	76.8794
571.7000	76.7391
571.6000	76.598
571.5000	76.4676
571.4000	76.3134
571.3000	76.1772
571.2000	76.0794
571.1000	75.998
571.0000	75.8437
570.9000	75.8228
570.8000	75.7291
570.7000	75.6857
570.6000	75.5925
570.5000	75.5512
570.4000	75.4928
570.3000	75.5027
570.2000	75.4511
570.1000	75.4785
570.0000	75.447
569.9000	75.4901
569.8000	75.5085
569.7000	75.5826
569.6000	75.6442
569.5000	75.6601
569.4000	75.7161
569.3000	75.7822
569.2000	75.8869
569.1000	76.0035
569.0000	76.104
568.9000	76.2125
568.8000	76.3147
568.7000	76.3917
568.6000	76.512
568.5000	76.6159
568.4000	76.7985
568.3000	76.8934
568.2000	77.0729
568.1000	77.1316
568.0000	77.3164
567.9000	77.4468
567.8000	77.6493
567.7000	77.7464
567.6000	77.913
567.5000	78.0085
567.4000	78.1777
567.3000	78.2992
567.2000	78.4979
567.1000	78.6246
567.0000	78.8991
566.9000	78.9877
566.8000	79.1687
566.7000	79.2754
566.6000	79.4427
566.5000	79.608
566.4000	79.7436
566.3000	79.9036
566.2000	80.0627
566.1000	80.2308
566.0000	80.4007
565.9000	80.5472
565.8000	80.6989
565.7000	80.7853
565.6000	80.869
565.5000	81.0431
565.4000	81.0685
565.3000	81.229
565.2000	81.2594
565.1000	81.3945
565.0000	81.4228
564.9000	81.5026
564.8000	81.5647
564.7000	81.6503
564.6000	81.6498
564.5000	81.6666
564.4000	81.6573
564.3000	81.6853
564.2000	81.62
564.1000	81.6907
564.0000	81.6723
563.9000	81.6536
563.8000	81.6166
563.7000	81.605
563.6000	81.539
563.5000	81.5477
563.4000	81.4718
563.3000	81.3732
563.2000	81.2633
563.1000	81.2141
563.0000	81.0849
562.9000	80.9731
562.8000	80.8119
562.7000	80.7042
562.6000	80.5969
562.5000	80.4461
562.4000	80.3521
562.3000	80.2196
562.2000	80.075
562.1000	79.9033
562.0000	79.7684
561.9000	79.5298
561.8000	79.3786
561.7000	79.2577
561.6000	79.0804
561.5000	78.8532
561.4000	78.6915
561.3000	78.5094
561.2000	78.3744
561.1000	78.1703
561.0000	78.0074
560.9000	77.8632
560.8000	77.6882
560.7000	77.5106
560.6000	77.3616
560.5000	77.1913
560.4000	77.035
560.3000	76.891
560.2000	76.7517
560.1000	76.593
560.0000	76.5415
559.9000	76.4137
559.8000	76.3288
559.7000	76.2539
559.6000	76.193
559.5000	76.0976
559.4000	76.046
559.3000	75.9861
559.2000	75.926
559.1000	75.8983
559.0000	75.9173
558.9000	75.9031
558.8000	75.9487
558.7000	75.9597
558.6000	76.0412
558.5000	76.0806
558.4000	76.076
558.3000	76.1623
558.2000	76.2785
558.1000	76.3658
558.0000	76.4729
557.9000	76.5514
557.8000	76.6768
557.7000	76.7485
557.6000	76.9197
557.5000	77.0066
557.4000	77.093
557.3000	77.2154
557.2000	77.3204
557.1000	77.4736
557.0000	77.5761
556.9000	77.7136
556.8000	77.8677
556.7000	78.0524
556.6000	78.2312
556.5000	78.3655
556.4000	78.4844
556.3000	78.6539
556.2000	78.7969
556.1000	79.0062
556.0000	79.1141
555.9000	79.3184
555.8000	79.4664
555.7000	79.6411
555.6000	79.8092
555.5000	79.9793
555.4000	80.1143
555.3000	80.3119
555.2000	80.4229
555.1000	80.5226
555.0000	80.5772
554.9000	80.7481
554.8000	80.8433
554.7000	81.0096
554.6000	81.0835
554.5000	81.1909
554.4000	81.2764
554.3000	81.3673
554.2000	81.4299
554.1000	81.5377
554.0000	81.5792
553.9000	81.6263
553.8000	81.6213
553.7000	81.6233
553.6000	81.6451
553.5000	81.7065
553.4000	81.7275
553.3000	81.7472
553.2000	81.7255
553.1000	81.6719
553.0000	81.6452
552.9000	81.5549
552.8000	81.5173
552.7000	81.4099
552.6000	81.3701
552.5000	81.2486
552.4000	81.1579
552.3000	81.0477
552.2000	81.0301
552.1000	80.8647
552.0000	80.7526
551.9000	80.5517
551.8000	80.4274
551.7000	80.2508
551.6000	80.1383
551.5000	80.018
551.4000	79.8433
551.3000	79.7069
551.2000	79.5047
551.1000	79.3719
551.0000	79.1461
550.9000	79.0244
550.8000	78.8362
550.7000	78.6523
550.6000	78.4681
550.5000	78.3503
550.4000	78.1643
550.3000	78.0472
550.2000	77.855
550.1000	77.6863
550.0000	77.5239
549.9000	77.3518
549.8000	77.2378
549.7000	77.1394
549.6000	77.0327
549.5000	76.8965
549.4000	76.8483
549.3000	76.7203
549.2000	76.6706
549.1000	76.5943
549.0000	76.5408
548.9000	76.484
548.8000	76.4948
548.7000	76.4621
548.6000	76.4794
548.5000	76.4417
548.4000	76.4719
548.3000	76.4454
548.2000	76.4582
548.1000	76.465
548.0000	76.5329
547.9000	76.5734
547.8000	76.5894
547.7000	76.637
547.6000	76.6971
547.5000	76.8174
547.4000	76.8693
547.3000	76.9847
547.2000	77.0522
547.1000	77.1669
547.0000	77.2154
546.9000	77.3685
546.8000	77.4294
546.7000	77.6109
546.6000	77.7235
546.5000	77.867
546.4000	77.9193
546.3000	78.1241
546.2000	78.3203
546.1000	78.5038
546.0000	78.662
545.9000	78.8082
545.8000	78.9698
545.7000	79.1374
545.6000	79.3028
545.5000	79.4552
545.4000	79.632
545.3000	79.7417
545.2000	79.9218
545.1000	80.039
545.0000	80.2353
544.9000	80.276
544.8000	80.5217
544.7000	80.5852
544.6000	80.7153
544.5000	80.8313
544.4000	80.9371
544.3000	81.0681
544.2000	81.1637
544.1000	81.2373
544.0000	81.3348
543.9000	81.3923
543.8000	81.4815
543.7000	81.5679
543.6000	81.5951
543.5000	81.6578
543.4000	81.6127
543.3000	81.7082
543.2000	81.6818
543.1000	81.7442
543.0000	81.7129
542.9000	81.687
542.8000	81.6083
542.7000	81.5231
542.6000	81.4612
542.5000	81.379
542.4000	81.2847
542.3000	81.182
542.2000	81.0787
542.1000	80.9522
542.0000	80.8765
541.9000	80.7634
541.8000	80.7007
541.7000	80.557
541.6000	80.3735
541.5000	80.1856
541.4000	80.0142
541.3000	79.8326
541.2000	79.7262
541.1000	79.5643
541.0000	79.4132
540.9000	79.2486
540.8000	79.107
540.7000	78.9404
540.6000	78.7783
540.5000	78.6202
540.4000	78.4911
540.3000	78.2971
540.2000	78.1156
540.1000	77.9505
540.0000	77.8224
539.9000	77.6773
539.8000	77.556
539.7000	77.4148
539.6000	77.2913
539.5000	77.1441
539.4000	77.0043
539.3000	76.858
539.2000	76.7388
539.1000	76.6756
539.0000	76.5575
538.9000	76.4933
538.8000	76.3708
538.7000	76.3149
538.6000	76.2274
538.5000	76.1758
538.4000	76.1875
538.3000	76.1457
538.2000	76.1358
538.1000	76.1618
538.0000	76.158
537.9000	76.2044
537.8000	76.2649
537.7000	76.3305
537.6000	76.3801
537.5000	76.4207
537.4000	76.5065
537.3000	76.6309
537.2000	76.7174
537.1000	76.8614
537.0000	77.0083
536.9000	77.1513
536.8000	77.2077
536.7000	77.3715
536.6000	77.5365
536.5000	77.6714
536.4000	77.8434
536.3000	77.9778
536.2000	78.0964
536.1000	78.2343
536.0000	78.4378
535.9000	78.5615
535.8000	78.7254
535.7000	78.8566
535.6000	79.0407
535.5000	79.1347
535.4000	79.2776
535.3000	79.4397
535.2000	79.6057
535.1000	79.7552
535.0000	79.8406
534.9000	80.0185
534.8000	80.0936
534.7000	80.2783
534.6000	80.391
534.5000	80.5442
534.4000	80.5827
534.3000	80.7331
534.2000	80.8219
534.1000	80.8896
534.0000	80.9549
533.9000	81.0582
533.8000	81.1676
533.7000	81.2066
533.6000	81.2915
533.5000	81.2727
533.4000	81.2917
533.3000	81.2414
533.2000	81.2363
533.1000	81.1362
533.0000	81.1462
532.9000	81.1332
532.8000	81.1179
532.7000	81.0335
532.6000	80.9617
532.5000	80.8904
532.4000	80.7684
532.3000	80.6308
532.2000	80.49
532.1000	80.3553
532.0000	80.1873
531.9000	80.0524
531.8000	79.9103
531.7000	79.7776
531.6000	79.6859
531.5000	79.5739
531.4000	79.4218
531.3000	79.1957
531.2000	79.0042
531.1000	78.8099
531.0000	78.6041
530.9000	78.3916
530.8000	78.2288
530.7000	78.1028
530.6000	77.9604
530.5000	77.772
530.4000	77.6166
530.3000	77.4902
530.2000	77.3515
530.1000	77.1992
530.0000	76.9842
529.9000	76.8453
529.8000	76.6815
529.7000	76.5849
529.6000	76.4351
529.5000	76.3402
529.4000	76.3133
529.3000	76.2713
529.2000	76.2115
529.1000	76.088
529.0000	76.0045
528.9000	75.9325
528.8000	75.9556
528.7000	75.9132
528.6000	75.8749
528.5000	75.871
528.4000	75.879
528.3000	75.9143
528.2000	75.9299
528.1000	75.9777
528.0000	76.0814
527.9000	76.1706
527.8000	76.2171
527.7000	76.2976
527.6000	76.4024
527.5000	76.5377
527.4000	76.6595
527.3000	76.7708
527.2000	76.8264
527.1000	76.9551
527.0000	77.071
526.9000	77.216
526.8000	77.3922
526.7000	77.5375
526.6000	77.6866
526.5000	77.8541
526.4000	77.9782
526.3000	78.1335
526.2000	78.2673
526.1000	78.3907
526.0000	78.5055
525.9000	78.6294
525.8000	78.7535
525.7000	78.9762
525.6000	79.1527
525.5000	79.2845
525.4000	79.428
525.3000	79.5431
525.2000	79.6386
525.1000	79.7469
525.0000	79.8817
524.9000	80.0185
524.8000	80.1499
524.7000	80.2228
524.6000	80.3303
524.5000	80.4428
524.4000	80.4995
524.3000	80.5459
524.2000	80.6148
524.1000	80.6274
524.0000	80.5969
523.9000	80.621
523.8000	80.6335
523.7000	80.6263
523.6000	80.6376
523.5000	80.5614
523.4000	80.5517
523.3000	80.464
523.2000	80.4202
523.1000	80.3615
523.0000	80.2609
522.9000	80.0878
522.8000	80.0059
522.7000	79.9197
522.6000	79.7698
522.5000	79.6472
522.4000	79.5212
522.3000	79.3594
522.2000	79.2387
522.1000	79.0693
522.0000	78.8704
521.9000	78.7542
521.8000	78.5057
521.7000	78.312
521.6000	78.1168
521.5000	77.9259
521.4000	77.7196
521.3000	77.6165
521.2000	77.4257
521.1000	77.2803
521.0000	77.1253
520.9000	76.9531
520.8000	76.7657
520.7000	76.6208
520.6000	76.428
520.5000	76.3164
520.4000	76.2205
520.3000	76.0416
520.2000	75.9401
520.1000	75.8165
520.0000	75.6206
519.9000	75.4963
519.8000	75.4371
519.7000	75.3492
519.6000	75.2574
519.5000	75.139
519.4000	75.0873
519.3000	75.0647
519.2000	75.0087
519.1000	74.9806
519.0000	74.9974
518.9000	75.0456
518.8000	75.1541
518.7000	75.1584
518.6000	75.3114
518.5000	75.377
518.4000	75.4944
518.3000	75.6367
518.2000	75.702
518.1000	75.8779
518.0000	75.9828
517.9000	76.1806
517.8000	76.2973
517.7000	76.4606
517.6000	76.6759
517.5000	76.8385
517.4000	77.0415
517.3000	77.1579
517.2000	77.3113
517.1000	77.5096
517.0000	77.6331
516.9000	77.8682
516.8000	77.9765
516.7000	78.1298
516.6000	78.3005
516.5000	78.4458
516.4000	78.6462
516.3000	78.737
516.2000	78.9895
516.1000	79.1263
516.0000	79.2063
515.9000	79.3489
515.8000	79.4186
515.7000	79.5822
515.6000	79.6451
515.5000	79.7307
515.4000	79.7874
515.3000	79.8234
515.2000	79.9221
515.1000	79.922
515.0000	80.0013
514.9000	79.9764
514.8000	79.8809
514.7000	79.9068
514.6000	79.8284
514.5000	79.7777
514.4000	79.7319
514.3000	79.639
514.2000	79.5942
514.1000	79.488
514.0000	79.4189
513.9000	79.3454
513.8000	79.2601
513.7000	79.1242
513.6000	78.9755
513.5000	78.8958
513.4000	78.7336
513.3000	78.6049
513.2000	78.5121
513.1000	78.281
513.0000	78.0754
512.9000	77.9107
512.8000	77.7485
512.7000	77.6266
512.6000	77.4274
512.5000	77.1822
512.4000	76.9724
512.3000	76.7456
512.2000	76.5623
512.1000	76.3735
512.0000	76.2346
511.9000	76.0331
511.8000	75.828
511.7000	75.709
511.6000	75.5577
511.5000	75.4151
511.4000	75.2447
511.3000	75.1004
511.2000	75.0006
511.1000	74.8863
511.0000	74.7737
510.9000	74.7532
510.8000	74.6804
510.7000	74.5965
510.6000	74.5391
510.5000	74.5059
510.4000	74.4526
510.3000	74.4371
510.2000	74.4497
510.1000	74.4621
510.0000	74.4607
509.9000	74.5548
509.8000	74.6633
509.7000	74.7087
509.6000	74.805
509.5000	74.8432
509.4000	74.9641
509.3000	75.0458
509.2000	75.2293
509.1000	75.3601
509.0000	75.4721
508.9000	75.6128
508.8000	75.7675
508.7000	75.9473
508.6000	76.1313
508.5000	76.2439
508.4000	76.4234
508.3000	76.6137
508.2000	76.7468
508.1000	76.9334
508.0000	77.0762
507.9000	77.2234
507.8000	77.3959
507.7000	77.5975
507.6000	77.707
507.5000	77.9227
507.4000	78.0312
507.3000	78.1637
507.2000	78.3227
507.1000	78.3987
507.0000	78.5277
506.9000	78.6019
506.8000	78.6818
506.7000	78.7779
506.6000	78.8617
506.5000	78.9493
506.4000	78.9976
506.3000	79.0576
506.2000	79.1064
506.1000	79.0847
506.0000	79.0851
505.9000	79.0466
505.8000	79.0805
505.7000	79.0425
505.6000	78.913
505.5000	78.8842
505.4000	78.7755
505.3000	78.6992
505.2000	78.6031
505.1000	78.4808
505.0000	78.3631
504.9000	78.1886
504.8000	78.0261
504.7000	77.8607
504.6000	77.6183
504.5000	77.461
504.4000	77.2747
504.3000	77.0481
504.2000	76.8683
504.1000	76.703
504.0000	76.5226
503.9000	76.3179
503.8000	76.0828
503.7000	75.8911
503.6000	75.6951
503.5000	75.4365
503.4000	75.251
503.3000	75.0518
503.2000	74.8367
503.1000	74.6935
503.0000	74.5701
502.9000	74.4188
502.8000	74.2161
502.7000	74.1211
502.6000	74.0023
502.5000	73.9066
502.4000	73.8438
502.3000	73.7659
502.2000	73.7556
502.1000	73.732
502.0000	73.7243
501.9000	73.7407
501.8000	73.7858
501.7000	73.823
501.6000	73.8386
501.5000	73.8891
501.4000	73.9548
501.3000	74.0264
501.2000	74.1585
501.1000	74.1927
501.0000	74.2659
500.9000	74.3532
500.8000	74.464
500.7000	74.6078
500.6000	74.7173
500.5000	74.8359
500.4000	74.9466
500.3000	75.031
500.2000	75.1592
500.1000	75.2985
500.0000	75.4998
499.9000	75.6035
499.8000	75.7498
499.7000	75.8655
499.6000	76.0569
499.5000	76.2777
499.4000	76.4467
499.3000	76.5917
499.2000	76.7542
499.1000	76.9264
499.0000	77.0883
498.9000	77.1994
498.8000	77.3674
498.7000	77.5658
498.6000	77.6611
498.5000	77.774
498.4000	77.8799
498.3000	77.9976
498.2000	78.0682
498.1000	78.162
498.0000	78.172
497.9000	78.2327
497.8000	78.203
497.7000	78.1733
497.6000	78.1294
497.5000	78.0944
497.4000	78.0618
497.3000	78.0309
497.2000	77.9256
497.1000	77.8283
497.0000	77.7535
496.9000	77.6245
496.8000	77.5011
496.7000	77.3119
496.6000	77.1801
496.5000	77.0318
496.4000	76.8493
496.3000	76.577
496.2000	76.4561
496.1000	76.3021
496.0000	76.0775
495.9000	75.8383
495.8000	75.626
495.7000	75.4379
495.6000	75.2648
495.5000	74.9983
495.4000	74.7508
495.3000	74.563
495.2000	74.3139
495.1000	74.1878
495.0000	73.9298
494.9000	73.7227
494.8000	73.5655
494.7000	73.3933
494.6000	73.2259
494.5000	73.1026
494.4000	73.0081
494.3000	72.9072
494.2000	72.7579
494.1000	72.6707
494.0000	72.6055
493.9000	72.6247
493.8000	72.6061
493.7000	72.6019
493.6000	72.6361
493.5000	72.6098
493.4000	72.6832
493.3000	72.7504
493.2000	72.8151
493.1000	72.9447
493.0000	73.03
492.9000	73.1159
492.8000	73.2343
492.7000	73.3416
492.6000	73.4941
492.5000	73.649
492.4000	73.8261
492.3000	73.9433
492.2000	74.0808
492.1000	74.2526
492.0000	74.4026
491.9000	74.5954
491.8000	74.7649
491.7000	74.9248
491.6000	75.0891
491.5000	75.2981
491.4000	75.4628
491.3000	75.6061
491.2000	75.7838
491.1000	75.9074
491.0000	76.1088
490.9000	76.2389
490.8000	76.3372
490.7000	76.5214
490.6000	76.6715
490.5000	76.7694
490.4000	76.9092
490.3000	76.9782
490.2000	77.0629
490.1000	77.1597
490.0000	77.2055
489.9000	77.1993
489.8000	77.1882
489.7000	77.1532
489.6000	77.1251
489.5000	77.1431
489.4000	77.0916
489.3000	77.0147
489.2000	76.9302
489.1000	76.7937
489.0000	76.6997
488.9000	76.541
488.8000	76.3352
488.7000	76.2144
488.6000	76.0764
488.5000	75.834
488.4000	75.6585
488.3000	75.4595
488.2000	75.2802
488.1000	75.1438
488.0000	74.9299
487.9000	74.7095
487.8000	74.4846
487.7000	74.2863
487.6000	74.0638
487.5000	73.8426
487.4000	73.666
487.3000	73.477
487.2000	73.2934
487.1000	73.0596
487.0000	72.8376
486.9000	72.6627
486.8000	72.4729
486.7000	72.3716
486.6000	72.2743
486.5000	72.1337
486.4000	72.0007
486.3000	71.9094
486.2000	71.8146
486.1000	71.7657
486.0000	71.7264
485.9000	71.7256
485.8000	71.664
485.7000	71.6851
485.6000	71.7297
485.5000	71.8008
485.4000	71.9109
485.3000	72.0386
485.2000	72.1154
485.1000	72.2063
485.0000	72.2975
484.9000	72.4152
484.8000	72.6123
484.7000	72.7249
484.6000	72.9151
484.5000	73.0612
484.4000	73.2415
484.3000	73.4171
484.2000	73.5858
484.1000	73.778
484.0000	73.9986
483.9000	74.1893
483.8000	74.3398
483.7000	74.4888
483.6000	74.7286
483.5000	74.8787
483.4000	75.0687
483.3000	75.2487
483.2000	75.3379
483.1000	75.4923
483.0000	75.6238
482.9000	75.7758
482.8000	75.8939
482.7000	76.0214
482.6000	76.1506
482.5000	76.2214
482.4000	76.2588
482.3000	76.3206
482.2000	76.3664
482.1000	76.4234
482.0000	76.3825
481.9000	76.3615
481.8000	76.3544
481.7000	76.3051
481.6000	76.3131
481.5000	76.2468
481.4000	76.1657
481.3000	76.0274
481.2000	75.9541
481.1000	75.8346
481.0000	75.6946
480.9000	75.5484
480.8000	75.4153
480.7000	75.2272
480.6000	75.0094
480.5000	74.7551
480.4000	74.565
480.3000	74.3484
480.2000	74.0979
480.1000	73.8652
480.0000	73.5816
479.9000	73.3698
479.8000	73.1191
479.7000	72.9676
479.6000	72.6838
479.5000	72.4676
479.4000	72.2278
479.3000	72.0299
479.2000	71.8157
479.1000	71.6061
479.0000	71.4844
478.9000	71.351
478.8000	71.2401
478.7000	71.1728
478.6000	71.096
478.5000	71.0226
478.4000	70.9852
478.3000	70.969
478.2000	70.9806
478.1000	70.9101
478.0000	70.9856
477.9000	70.9387
477.8000	70.9748
477.7000	71.0556
477.6000	71.0901
477.5000	71.2578
477.4000	71.3642
477.3000	71.5126
477.2000	71.6881
477.1000	71.8083
477.0000	71.9749
476.9000	72.1446
476.8000	72.3535
476.7000	72.5221
476.6000	72.6433
476.5000	72.8636
476.4000	73.0079
476.3000	73.219
476.2000	73.4131
476.1000	73.6008
476.0000	73.8539
475.9000	73.9994
475.8000	74.2386
475.7000	74.4167
475.6000	74.5499
475.5000	74.7174
475.4000	74.8543
475.3000	75.0224
475.2000	75.1563
475.1000	75.2476
475.0000	75.3756
474.9000	75.4279
474.8000	75.5367
474.7000	75.6263
474.6000	75.6934
474.5000	75.6843
474.4000	75.6755
474.3000	75.6504
474.2000	75.5533
474.1000	75.4493
474.0000	75.3666
473.9000	75.2864
473.8000	75.1561
473.7000	74.9686
473.6000	74.8233
473.5000	74.6807
473.4000	74.4984
473.3000	74.336
473.2000	74.1093
473.1000	73.887
473.0000	73.6712
472.9000	73.4727
472.8000	73.2039
472.7000	72.9407
472.6000	72.6982
472.5000	72.5011
472.4000	72.2901
472.3000	72.0285
472.2000	71.7889
472.1000	71.6501
472.0000	71.4277
471.9000	71.235
471.8000	71.0855
471.7000	70.918
471.6000	70.7579
471.5000	70.6378
471.4000	70.5419
471.3000	70.4327
471.2000	70.4293
471.1000	70.4101
471.0000	70.3764
470.9000	70.3767
470.8000	70.3558
470.7000	70.3772
470.6000	70.4636
470.5000	70.5117
470.4000	70.5851
470.3000	70.7003
470.2000	70.7622
470.1000	70.9213
470.0000	71.1183
469.9000	71.2429
469.8000	71.4047
469.7000	71.6111
469.6000	71.7606
469.5000	71.9486
469.4000	72.1766
469.3000	72.3677
469.2000	72.5486
469.1000	72.7324
469.0000	72.9341
468.9000	73.0823
468.8000	73.2862
468.7000	73.5094
468.6000	73.7274
468.5000	73.9044
468.4000	74.0132
468.3000	74.2067
468.2000	74.3328
468.1000	74.5083
468.0000	74.6421
467.9000	74.7563
467.8000	74.8429
467.7000	74.9356
467.6000	75.0599
467.5000	75.1231
467.4000	75.1104
467.3000	75.099
467.2000	75.1027
467.1000	75.0169
467.0000	74.9735
466.9000	74.8632
466.8000	74.7967
466.7000	74.7029
466.6000	74.5987
466.5000	74.3948
466.4000	74.2564
466.3000	74.0811
466.2000	73.8381
466.1000	73.5944
466.0000	73.3617
465.9000	73.1639
465.8000	72.9292
465.7000	72.7121
465.6000	72.4684
465.5000	72.2632
465.4000	72.038
465.3000	71.8225
465.2000	71.6188
465.1000	71.394
465.0000	71.1456
464.9000	70.9207
464.8000	70.689
464.7000	70.5191
464.6000	70.4175
464.5000	70.3522
464.4000	70.2365
464.3000	70.1379
464.2000	70.0644
464.1000	70.0363
464.0000	69.944
463.9000	69.9231
463.8000	69.9146
463.7000	69.9799
463.6000	70.0389
463.5000	70.1391
463.4000	70.2335
463.3000	70.3327
463.2000	70.4222
463.1000	70.5288
463.0000	70.6769
462.9000	70.7638
462.8000	70.9404
462.7000	71.125
462.6000	71.3353
462.5000	71.499
462.4000	71.7323
462.3000	71.9363
462.2000	72.1454
462.1000	72.3312
462.0000	72.4724
461.9000	72.623
461.8000	72.8482
461.7000	73.0726
461.6000	73.3182
461.5000	73.5558
461.4000	73.7155
461.3000	73.8787
461.2000	74.0378
461.1000	74.1743
461.0000	74.3416
460.9000	74.4618
460.8000	74.5699
460.7000	74.6177
460.6000	74.6674
460.5000	74.668
460.4000	74.7177
460.3000	74.7408
460.2000	74.6747
460.1000	74.598
460.0000	74.4855
459.9000	74.3593
459.8000	74.1694
459.7000	74.0617
459.6000	73.8508
459.5000	73.6574
459.4000	73.4291
459.3000	73.2744
459.2000	73.0481
459.1000	72.8404
459.0000	72.6239
458.9000	72.4109
458.8000	72.126
458.7000	71.8467
458.6000	71.6278
458.5000	71.417
458.4000	71.1874
458.3000	70.988
458.2000	70.8348
458.1000	70.6186
458.0000	70.447
457.9000	70.3242
457.8000	70.1716
457.7000	70.0197
457.6000	69.9068
457.5000	69.7998
457.4000	69.7304
457.3000	69.6408
457.2000	69.6794
457.1000	69.6729
457.0000	69.7122
456.9000	69.7728
456.8000	69.8539
456.7000	69.8994
456.6000	70.0294
456.5000	70.1912
456.4000	70.3679
456.3000	70.4867
456.2000	70.666
456.1000	70.8757
456.0000	71.0674
455.9000	71.3017
455.8000	71.5082
455.7000	71.7628
455.6000	71.9765
455.5000	72.2223
455.4000	72.4469
455.3000	72.6368
455.2000	72.9018
455.1000	73.1673
455.0000	73.377
454.9000	73.5423
454.8000	73.7102
454.7000	73.9057
454.6000	74.0321
454.5000	74.111
454.4000	74.2666
454.3000	74.3849
454.2000	74.4375
454.1000	74.5133
454.0000	74.5374
453.9000	74.5504
453.8000	74.5198
453.7000	74.5023
453.6000	74.4117
453.5000	74.2989
453.4000	74.1877
453.3000	74.0546
453.2000	73.8973
453.1000	73.7019
453.0000	73.5079
452.9000	73.3333
452.8000	73.096
452.7000	72.8746
452.6000	72.658
452.5000	72.4106
452.4000	72.2201
452.3000	71.9482
452.2000	71.7064
452.1000	71.4816
452.0000	71.2694
451.9000	71.0488
451.8000	70.8385
451.7000	70.6357
451.6000	70.4711
451.5000	70.3552
451.4000	70.2767
451.3000	70.1685
451.2000	70.1065
451.1000	70.0448
451.0000	70.0005
450.9000	69.9854
450.8000	69.9188
450.7000	69.9641
450.6000	70.0086
450.5000	70.0806
450.4000	70.1589
450.3000	70.3211
450.2000	70.4493
450.1000	70.6042
450.0000	70.7642
449.9000	70.9161
449.8000	71.085
449.7000	71.263
449.6000	71.472
449.5000	71.6251
449.4000	71.8701
449.3000	72.0909
449.2000	72.3063
449.1000	72.5518
449.0000	72.7472
448.9000	72.9389
448.8000	73.1289
448.7000	73.2842
448.6000	73.463
448.5000	73.6197
448.4000	73.7962
448.3000	73.9889
448.2000	74.1485
448.1000	74.3262
448.0000	74.3946
447.9000	74.5088
447.8000	74.5745
447.7000	74.5912
447.6000	74.6658
447.5000	74.6262
447.4000	74.6071
447.3000	74.5852
447.2000	74.5144
447.1000	74.4031
447.0000	74.2888
446.9000	74.1345
446.8000	73.9418
446.7000	73.7404
446.6000	73.5272
446.5000	73.2616
446.4000	73.0626
446.3000	72.8379
446.2000	72.5978
446.1000	72.321
446.0000	72.0098
445.9000	71.7737
445.8000	71.5675
445.7000	71.3505
445.6000	71.1358
445.5000	70.945
445.4000	70.7279
445.3000	70.5851
445.2000	70.4859
445.1000	70.3472
445.0000	70.2006
444.9000	70.1601
444.8000	70.0841
444.7000	70.0386
444.6000	70.0352
444.5000	70.0848
444.4000	70.214
444.3000	70.2968
444.2000	70.3737
444.1000	70.4838
444.0000	70.5871
443.9000	70.7978
443.8000	70.9963
443.7000	71.2431
443.6000	71.392
443.5000	71.6311
443.4000	71.872
443.3000	72.0884
443.2000	72.3077
443.1000	72.5338
443.0000	72.7412
442.9000	73.0187
442.8000	73.2494
442.7000	73.5036
442.6000	73.7277
442.5000	73.9199
442.4000	74.1269
442.3000	74.1912
442.2000	74.3584
442.1000	74.4519
442.0000	74.5845
441.9000	74.6204
441.8000	74.6821
441.7000	74.6752
441.6000	74.7083
441.5000	74.6781
441.4000	74.6682
441.3000	74.5854
441.2000	74.3912
441.1000	74.2018
441.0000	74.0499
440.9000	73.914
440.8000	73.7703
440.7000	73.6515
440.6000	73.4216
440.5000	73.2391
440.4000	72.9993
440.3000	72.7938
440.2000	72.5378
440.1000	72.3317
440.0000	72.1088
439.9000	71.9031
439.8000	71.6928
439.7000	71.5186
439.6000	71.4079
439.5000	71.2777
439.4000	71.1755
439.3000	71.0378
439.2000	70.9632
439.1000	70.8154
439.0000	70.8264
438.9000	70.7969
438.8000	70.8265
438.7000	70.8015
438.6000	70.8598
438.5000	70.9107
438.4000	70.9907
438.3000	71.0682
438.2000	71.1634
438.1000	71.2616
438.0000	71.3853
437.9000	71.5562
437.8000	71.7046
437.7000	71.9243
437.6000	72.0839
437.5000	72.3346
437.4000	72.48
437.3000	72.678
437.2000	72.8732
437.1000	73.1634
437.0000	73.4228
436.9000	73.6805
436.8000	73.8722
436.7000	74.1079
436.6000	74.3237
436.5000	74.5204
436.4000	74.6914
436.3000	74.8522
436.2000	75.019
436.1000	75.0573
436.0000	75.1496
435.9000	75.1432
435.8000	75.2165
435.7000	75.1587
435.6000	75.1633
435.5000	75.1302
435.4000	74.9659
435.3000	74.7806
435.2000	74.6568
435.1000	74.4864
435.0000	74.3237
434.9000	74.0937
434.8000	73.8671
434.7000	73.7104
434.6000	73.4234
434.5000	73.2025
434.4000	72.9447
434.3000	72.7815
434.2000	72.5206
434.1000	72.309
434.0000	72.0443
433.9000	71.8073
433.8000	71.6646
433.7000	71.5443
433.6000	71.4094
433.5000	71.324
433.4000	71.2378
433.3000	71.1791
433.2000	71.1767
433.1000	71.0442
433.0000	71.0335
432.9000	71.0569
432.8000	71.1178
432.7000	71.2049
432.6000	71.2838
432.5000	71.4294
432.4000	71.5982
432.3000	71.7388
432.2000	71.9296
432.1000	72.1117
432.0000	72.2897
431.9000	72.4714
431.8000	72.6548
431.7000	72.8561
431.6000	73.0646
431.5000	73.3088
431.4000	73.5413
431.3000	73.7903
431.2000	73.928
431.1000	74.1116
431.0000	74.3419
430.9000	74.5764
430.8000	74.8028
430.7000	74.9283
430.6000	75.0666
430.5000	75.1494
430.4000	75.1876
430.3000	75.2365
430.2000	75.2624
430.1000	75.2665
430.0000	75.1635
429.9000	75.092
429.8000	75.0323
429.7000	74.9036
429.6000	74.8297
429.5000	74.7062
429.4000	74.5305
429.3000	74.2934
429.2000	73.9987
429.1000	73.8239
429.0000	73.5982
428.9000	73.4214
428.8000	73.2476
428.7000	73.0037
428.6000	72.7647
428.5000	72.6002
428.4000	72.4808
428.3000	72.3184
428.2000	72.1609
428.1000	72.0329
428.0000	71.9717
427.9000	71.8586
427.8000	71.7536
427.7000	71.6791
427.6000	71.6827
427.5000	71.6927
427.4000	71.7608
427.3000	71.8501
427.2000	71.9561
427.1000	72.1327
427.0000	72.3019
426.9000	72.4603
426.8000	72.58
426.7000	72.8099
426.6000	73.0344
426.5000	73.2154
426.4000	73.4054
426.3000	73.626
426.2000	73.935
426.1000	74.2374
426.0000	74.5002
425.9000	74.6892
425.8000	74.8681
425.7000	75.0056
425.6000	75.2122
425.5000	75.3428
425.4000	75.4839
425.3000	75.5961
425.2000	75.8061
425.1000	75.8707
425.0000	75.9058
424.9000	75.9681
424.8000	75.8988
424.7000	75.8667
424.6000	75.7614
424.5000	75.6041
424.4000	75.4104
424.3000	75.2783
424.2000	75.1133
424.1000	74.9803
424.0000	74.7685
423.9000	74.5884
423.8000	74.3733
423.7000	74.1593
423.6000	73.9035
423.5000	73.7272
423.4000	73.5352
423.3000	73.3322
423.2000	73.1927
423.1000	73.0313
423.0000	72.8908
422.9000	72.7931
422.8000	72.7362
422.7000	72.6573
422.6000	72.5806
422.5000	72.509
422.4000	72.4883
422.3000	72.5137
422.2000	72.5889
422.1000	72.6695
422.0000	72.7212
421.9000	72.7892
421.8000	72.926
421.7000	73.0355
421.6000	73.2111
421.5000	73.4052
421.4000	73.6041
421.3000	73.7806
421.2000	74.0078
421.1000	74.2118
421.0000	74.4505
420.9000	74.6894
420.8000	74.8796
420.7000	75.0272
420.6000	75.2248
420.5000	75.3775
420.4000	75.6077
420.3000	75.7324
420.2000	75.7952
420.1000	75.9403
420.0000	75.9793
419.9000	75.9933
419.8000	76.1047
419.7000	76.0556
419.6000	75.9684
419.5000	75.8839
419.4000	75.6936
419.3000	75.5685
419.2000	75.4405
419.1000	75.3497
419.0000	75.236
418.9000	75.1468
418.8000	74.9292
418.7000	74.6826
418.6000	74.5137
418.5000	74.2462
418.4000	74.0157
418.3000	73.8061
418.2000	73.6642
418.1000	73.4683
418.0000	73.3029
417.9000	73.1745
417.8000	73.1914
417.7000	73.118
417.6000	73.0306
417.5000	73.0176
417.4000	73.0855
417.3000	72.9981
417.2000	73.079
417.1000	73.1242
417.0000	73.1928
416.9000	73.3555
416.8000	73.4864
416.7000	73.5555
416.6000	73.6166
416.5000	73.8628
416.4000	74.118
416.3000	74.3757
416.2000	74.5984
416.1000	74.8436
416.0000	75.0766
415.9000	75.2574
415.8000	75.3489
415.7000	75.491
415.6000	75.5693
415.5000	75.685
415.4000	75.9012
415.3000	76.0547
415.2000	76.1647
415.1000	76.2374
415.0000	76.2826
414.9000	76.2284
414.8000	76.1678
414.7000	76.0217
414.6000	75.8522
414.5000	75.6864
414.4000	75.5487
414.3000	75.4221
414.2000	75.309
414.1000	75.1066
414.0000	74.9591
413.9000	74.8139
413.8000	74.4893
413.7000	74.2133
413.6000	74.0599
413.5000	73.8714
413.4000	73.765
413.3000	73.6514
413.2000	73.496
413.1000	73.4266
413.0000	73.2895
412.9000	73.2431
412.8000	73.2946
412.7000	73.2513
412.6000	73.2424
412.5000	73.2549
412.4000	73.3445
412.3000	73.3846
412.2000	73.594
412.1000	73.7692
412.0000	73.8642
411.9000	73.9734
411.8000	74.0392
411.7000	74.1804
411.6000	74.3932
411.5000	74.5609
411.4000	74.7823
411.3000	74.9334
411.2000	74.9863
411.1000	75.2327
411.0000	75.382
410.9000	75.6342
410.8000	75.7228
410.7000	75.8309
410.6000	75.8106
410.5000	75.8638
410.4000	75.8496
410.3000	75.9854
410.2000	76.0476
410.1000	75.9304
410.0000	75.8822
409.9000	75.805
409.8000	75.6612
409.7000	75.501
409.6000	75.4143
409.5000	75.1676
409.4000	75.133
409.3000	74.9808
409.2000	74.8706
409.1000	74.6948
409.0000	74.5551
408.9000	74.2852
408.8000	74.2199
408.7000	74.0461
408.6000	73.8982
408.5000	73.8809
408.4000	73.7876
408.3000	73.7541
408.2000	73.7623
408.1000	73.7862
408.0000	73.8323
407.9000	73.7938
407.8000	73.6814
407.7000	73.7457
407.6000	73.853
407.5000	73.9937
407.4000	74.1222
407.3000	74.3623
407.2000	74.4449
407.1000	74.612
407.0000	74.7987
406.9000	74.9926
406.8000	75.1382
406.7000	75.2574
406.6000	75.4497
406.5000	75.5195
406.4000	75.5859
406.3000	75.7552
406.2000	75.8147
406.1000	75.7548
406.0000	75.6495
405.9000	75.588
405.8000	75.5623
405.7000	75.4709
405.6000	75.4398
405.5000	75.3153
405.4000	75.1858
405.3000	74.9524
405.2000	74.7408
405.1000	74.5558
405.0000	74.363
404.9000	74.2332
404.8000	74.0853
404.7000	73.9463
404.6000	73.8286
404.5000	73.7564
404.4000	73.675
404.3000	73.6193
404.2000	73.4804
404.1000	73.3967
404.0000	73.362
403.9000	73.3616
403.8000	73.3686
403.7000	73.4124
403.6000	73.4393
403.5000	73.5136
403.4000	73.4419
403.3000	73.5252
403.2000	73.6278
403.1000	73.7515
403.0000	73.8349
402.9000	73.9549
402.8000	74.0759
402.7000	74.2255
402.6000	74.3974
402.5000	74.5879
402.4000	74.6636
402.3000	74.7667
402.2000	74.7789
402.1000	74.9012
402.0000	75.015
401.9000	74.9964
401.8000	75.0809
401.7000	75.0578
401.6000	74.956
401.5000	74.7517
401.4000	74.7047
401.3000	74.5708
401.2000	74.3841
401.1000	74.3036
401.0000	74.128
400.9000	73.9593
400.8000	73.7271
400.7000	73.5678
400.6000	73.4373
400.5000	73.2186
400.4000	73.0083
400.3000	72.8848
400.2000	72.7517
400.1000	72.6689
400.0000	72.5223
399.9000	72.5937
399.8000	72.5908
399.7000	72.6209
399.6000	72.6681
399.5000	72.5911
399.4000	72.6177
399.3000	72.7049
399.2000	72.8252
399.1000	72.8706
399.0000	72.9509
398.9000	73.1134
398.8000	73.2919
398.7000	73.4501
398.6000	73.5564
398.5000	73.6937
398.4000	73.8979
398.3000	73.939
398.2000	73.9654
398.1000	73.9805
398.0000	74.0445
397.9000	74.0734
397.8000	74.1277
397.7000	73.9975
397.6000	73.9545
397.5000	73.8576
397.4000	73.7912
397.3000	73.7303
397.2000	73.6015
397.1000	73.3553
397.0000	73.2446
396.9000	73.0308
396.8000	72.8204
396.7000	72.6252
396.6000	72.4256
396.5000	72.3228
396.4000	72.154
396.3000	71.9906
396.2000	71.8018
396.1000	71.7653
396.0000	71.6804
395.9000	71.6941
395.8000	71.7601
395.7000	71.6284
395.6000	71.594
395.5000	71.7332
395.4000	71.8179
395.3000	71.9487
395.2000	72.0671
395.1000	72.2301
395.0000	72.3898
394.9000	72.498
394.8000	72.6608
394.7000	72.7727
394.6000	72.9418
394.5000	72.9727
394.4000	73.062
394.3000	73.0842
394.2000	73.0475
394.1000	73.1163
394.0000	73.1413
393.9000	73.0832
393.8000	73.0473
393.7000	72.8788
393.6000	72.7695
393.5000	72.6406
393.4000	72.5328
393.3000	72.2944
393.2000	72.0978
393.1000	71.8716
393.0000	71.759
392.9000	71.5611
392.8000	71.3598
392.7000	71.2211
392.6000	71.0401
392.5000	70.8519
392.4000	70.7495
392.3000	70.6755
392.2000	70.5988
392.1000	70.5683
392.0000	70.4813
391.9000	70.4532
391.8000	70.4031
391.7000	70.5291
391.6000	70.5316
391.5000	70.7114
391.4000	70.7417
391.3000	70.8164
391.2000	70.9569
391.1000	71.014
391.0000	71.1134
390.9000	71.1942
390.8000	71.2917
390.7000	71.2881
390.6000	71.2655
390.5000	71.2819
390.4000	71.3031
390.3000	71.196
390.2000	71.1003
390.1000	70.8922
390.0000	70.7529
389.9000	70.5475
389.8000	70.3398
389.7000	70.2457
389.6000	70.0107
389.5000	69.8136
389.4000	69.6707
389.3000	69.5195
389.2000	69.2847
389.1000	69.1592
389.0000	69.0238
388.9000	68.9236
388.8000	68.8889
388.7000	68.86
388.6000	68.8507
388.5000	68.8923
388.4000	68.9399
388.3000	69.012
388.2000	69.1322
388.1000	69.1772
388.0000	69.2986
387.9000	69.3966
387.8000	69.4833
387.7000	69.5899
387.6000	69.6754
387.5000	69.8462
387.4000	69.9032
387.3000	69.8381
387.2000	69.794
387.1000	69.7574
387.0000	69.7004
386.9000	69.5892
386.8000	69.5425
386.7000	69.3273
386.6000	69.1227
386.5000	68.911
386.4000	68.7066
386.3000	68.4968
386.2000	68.2202
386.1000	68.0423
386.0000	67.8316
385.9000	67.5231
385.8000	67.3766
385.7000	67.2332
385.6000	67.064
385.5000	66.9674
385.4000	66.8939
385.3000	66.9302
385.2000	66.9018
385.1000	66.9828
385.0000	67.0918
384.9000	67.202
384.8000	67.2754
384.7000	67.3776
384.6000	67.5213
384.5000	67.5984
384.4000	67.6432
384.3000	67.742
384.2000	67.7876
384.1000	67.773
384.0000	67.7425
383.9000	67.6863
383.8000	67.6507
383.7000	67.4585
383.6000	67.2962
383.5000	67.0994
383.4000	66.8165
383.3000	66.6304
383.2000	66.3403
383.1000	66.0562
383.0000	65.8349
382.9000	65.5517
382.8000	65.3946
382.7000	65.2681
382.6000	65.0711
382.5000	65.0743
382.4000	65.0298
382.3000	64.9902
382.2000	64.901
382.1000	64.936
382.0000	64.8624
381.9000	64.9006
381.8000	65.0509
381.7000	65.1201
381.6000	65.1899
381.5000	65.2653
381.4000	65.2449
381.3000	65.2934
381.2000	65.2498
381.1000	65.0707
381.0000	65.0049
380.9000	64.8831
380.8000	64.7356
380.7000	64.5615
380.6000	64.3607
380.5000	64.1499
380.4000	64.049
380.3000	63.8308
380.2000	63.4761
380.1000	63.1904
380.0000	63.0714
379.9000	62.8585
379.8000	62.6938
379.7000	62.586
379.6000	62.5408
379.5000	62.5031
379.4000	62.4709
379.3000	62.4878
379.2000	62.4633
379.1000	62.4481
379.0000	62.44
378.9000	62.4381
378.8000	62.3983
378.7000	62.4279
378.6000	62.4789
378.5000	62.48
378.4000	62.3643
378.3000	62.3081
378.2000	62.1731
378.1000	61.9643
378.0000	61.7927
377.9000	61.6135
377.8000	61.3319
377.7000	60.9563
377.6000	60.6987
377.5000	60.5049
377.4000	60.3404
377.3000	60.1229
377.2000	59.91
377.1000	59.7041
377.0000	59.5334
376.9000	59.3479
376.8000	59.205
376.7000	59.101
376.6000	59.0888
376.5000	59.0842
376.4000	58.9849
376.3000	58.9636
376.2000	58.8941
376.1000	58.9113
376.0000	58.9475
375.9000	58.8278
375.8000	58.6467
375.7000	58.5382
375.6000	58.3838
375.5000	58.1636
375.4000	57.9663
375.3000	57.7494
375.2000	57.4676
375.1000	57.2099
375.0000	56.8895
374.9000	56.5607
374.8000	56.316
374.7000	55.9865
374.6000	55.7499
374.5000	55.539
374.4000	55.3465
374.3000	55.1728
374.2000	55.0875
374.1000	54.8614
374.0000	54.6849
373.9000	54.5355
373.8000	54.2809
373.7000	54.0072
373.6000	53.8601
373.5000	53.5853
373.4000	53.3352
373.3000	53.0478
373.2000	52.7315
373.1000	52.3494
373.0000	52.0481
372.9000	51.6221
372.8000	51.1712
372.7000	50.7703
372.6000	50.31
372.5000	49.903
372.4000	49.5259
372.3000	49.0997
372.2000	48.807
372.1000	48.4816
372.0000	48.0692
371.9000	47.7266
371.8000	47.2882
371.7000	46.8689
371.6000	46.3937
371.5000	46.0809
371.4000	45.5666
371.3000	45.0883
371.2000	44.5148
371.1000	43.9413
371.0000	43.3947
370.9000	42.8528
370.8000	42.3447
370.7000	41.7532
370.6000	41.0983
370.5000	40.4667
370.4000	39.8594
370.3000	39.2256
370.2000	38.6196
370.1000	37.9805
370.0000	37.339
369.9000	36.6663
369.8000	35.9013
369.7000	35.2156
369.6000	34.4636
369.5000	33.7589
369.4000	32.9499
369.3000	32.1827
369.2000	31.3554
369.1000	30.578
369.0000	29.761
368.9000	28.931
368.8000	28.16
368.7000	27.3125
368.6000	26.4482
368.5000	25.6074
368.4000	24.7328
368.3000	23.8781
368.2000	23.0787
368.1000	22.2579
368.0000	21.3962
367.9000	20.5323
367.8000	19.7023
367.7000	18.832
367.6000	17.9504
367.5000	17.0899
367.4000	16.2361
367.3000	15.373
367.2000	14.4526
367.1000	13.609
367.0000	12.7538
366.9000	11.9087
366.8000	11.155
366.7000	10.3614
366.6000	9.59175
366.5000	8.85593
366.4000	8.12148
366.3000	7.42462
366.2000	6.72562
366.1000	6.08868
366.0000	5.47896
365.9000	4.92696
365.8000	4.38561
365.7000	3.89566
365.6000	3.43238
365.5000	3.00986
365.4000	2.62093
365.3000	2.30069
365.2000	1.96792
365.1000	1.70495
365.0000	1.4658
364.9000	1.2561
364.8000	1.09204
364.7000	0.932053
364.6000	0.80612
364.5000	0.704583
364.4000	0.624222
364.3000	0.544823
364.2000	0.490841
364.1000	0.454783
364.0000	0.427042
363.9000	0.401516
363.8000	0.372461
363.7000	0.36303
363.6000	0.349878
363.5000	0.331438
363.4000	0.324747
363.3000	0.315157
363.2000	0.307953
363.1000	0.315192
363.0000	0.318286
362.9000	0.313681
362.8000	0.312453
362.7000	0.312422
362.6000	0.322323
362.5000	0.3182
362.4000	0.317887
362.3000	0.319346
362.2000	0.325957
362.1000	0.318506
362.0000	0.311212
361.9000	0.315498
361.8000	0.321081
361.7000	0.32438
361.6000	0.329112
361.5000	0.320161
361.4000	0.312662
361.3000	0.318582
361.2000	0.313399
361.1000	0.31412
361.0000	0.303558
360.9000	0.297765
360.8000	0.299379
360.7000	0.297768
360.6000	0.293923
360.5000	0.291947
360.4000	0.296885
360.3000	0.294911
360.2000	0.290334
360.1000	0.293181
360.0000	0.285449
359.9000	0.280235
359.8000	0.28628
359.7000	0.279829
359.6000	0.285456
359.5000	0.281919
359.4000	0.284809
359.3000	0.283025
359.2000	0.285814
359.1000	0.287456
359.0000	0.282479
358.9000	0.285908
358.8000	0.282426
358.7000	0.278524
358.6000	0.282772
358.5000	0.281612
358.4000	0.279099
358.3000	0.29234
358.2000	0.292335
358.1000	0.296694
358.0000	0.290927
357.9000	0.292979
357.8000	0.296073
357.7000	0.297204
357.6000	0.296994
357.5000	0.301667
357.4000	0.307148
357.3000	0.302636
357.2000	0.305915
357.1000	0.30759
357.0000	0.306573
356.9000	0.301234
356.8000	0.309707
356.7000	0.302472
356.6000	0.300952
356.5000	0.2926
356.4000	0.295273
356.3000	0.287825
356.2000	0.292321
356.1000	0.297562
356.0000	0.289634
355.9000	0.291749
355.8000	0.283865
355.7000	0.28192
355.6000	0.280993
355.5000	0.286688
355.4000	0.281821
355.3000	0.289337
355.2000	0.292729
355.1000	0.289082
355.0000	0.283021
354.9000	0.286836
354.8000	0.284663
354.7000	0.292059
354.6000	0.278581
354.5000	0.280181
354.4000	0.284924
354.3000	0.27488
354.2000	0.285049
354.1000	0.292825
354.0000	0.293821
353.9000	0.293559
353.8000	0.301613
353.7000	0.301623
353.6000	0.29937
353.5000	0.306745
353.4000	0.31066
353.3000	0.314265
353.2000	0.313398
353.1000	0.311802
353.0000	0.31597
352.9000	0.312918
352.8000	0.316504
352.7000	0.315995
352.6000	0.313572
352.5000	0.319765
352.4000	0.321138
352.3000	0.320315
352.2000	0.318153
352.1000	0.321455
352.0000	0.31879
351.9000	0.319395
351.8000	0.323885
351.7000	0.320505
351.6000	0.323727
351.5000	0.323195
351.4000	0.320201
351.3000	0.327028
351.2000	0.317067
351.1000	0.320714
351.0000	0.321272
350.9000	0.311645
350.8000	0.309977
350.7000	0.309666
350.6000	0.300468
350.5000	0.29701
350.4000	0.295336
350.3000	0.296186
350.2000	0.300563
350.1000	0.303691
350.0000	0.313094
349.9000	0.310871
349.8000	0.320611
349.7000	0.313754
349.6000	0.319105
349.5000	0.323173
349.4000	0.324397
349.3000	0.323701
349.2000	0.327646
349.1000	0.322795
349.0000	0.328045
348.9000	0.325342
348.8000	0.336585
348.7000	0.335351
348.6000	0.328176
348.5000	0.327925
348.4000	0.320692
348.3000	0.333192
348.2000	0.329422
348.1000	0.323024
348.0000	0.320921
347.9000	0.320941
347.8000	0.322406
347.7000	0.328532
347.6000	0.3281
347.5000	0.324264
347.4000	0.323774
347.3000	0.327311
347.2000	0.318243
347.1000	0.316417
347.0000	0.31736
346.9000	0.313939
346.8000	0.322134
346.7000	0.318424
346.6000	0.317858
346.5000	0.319852
346.4000	0.329951
346.3000	0.329722
346.2000	0.324192
346.1000	0.327786
346.0000	0.33338
345.9000	0.342916
345.8000	0.33726
345.7000	0.334604
345.6000	0.337939
345.5000	0.339384
345.4000	0.331067
345.3000	0.338258
345.2000	0.332538
345.1000	0.326901
345.0000	0.327341
344.9000	0.334501
344.8000	0.325936
344.7000	0.327689
344.6000	0.3276
344.5000	0.335153
344.4000	0.329636
344.3000	0.331509
344.2000	0.339336
344.1000	0.352575
344.0000	0.361049
343.9000	0.360093
343.8000	0.366793
343.7000	0.378503
343.6000	0.380047
343.5000	0.385136
343.4000	0.384322
343.3000	0.384635
343.2000	0.384138
343.1000	0.387321
343.0000	0.395583
342.9000	0.386225
342.8000	0.391591
342.7000	0.385654
342.6000	0.395913
342.5000	0.383754
342.4000	0.375678
342.3000	0.384221
342.2000	0.385972
342.1000	0.383537
342.0000	0.390432
341.9000	0.384441
341.8000	0.387735
341.7000	0.379864
341.6000	0.376157
341.5000	0.377875
341.4000	0.382145
341.3000	0.390379
341.2000	0.384731
341.1000	0.396635
341.0000	0.389241
340.9000	0.395256
340.8000	0.397176
340.7000	0.399138
340.6000	0.404626
340.5000	0.390435
340.4000	0.389523
340.3000	0.412871
340.2000	0.419032
340.1000	0.432308
340.0000	0.323596
339.9000	0.336004
339.8000	0.329747
339.7000	0.329504
339.6000	0.306403
339.5000	0.295577
339.4000	0.29406
339.3000	0.26696
339.2000	0.273214
339.1000	0.283891
339.0000	0.299061
338.9000	0.324104
338.8000	0.310726
338.7000	0.325061
338.6000	0.340714
338.5000	0.341454
338.4000	0.339587
338.3000	0.342029
338.2000	0.351603
338.1000	0.348042
338.0000	0.342249
337.9000	0.357503
337.8000	0.364881
337.7000	0.396178
337.6000	0.389095
337.5000	0.373248
337.4000	0.337234
337.3000	0.341247
337.2000	0.325359
337.1000	0.303734
337.0000	0.314099
336.9000	0.295787
336.8000	0.304739
336.7000	0.293414
336.6000	0.29679
336.5000	0.293995
336.4000	0.297922
336.3000	0.292573
336.2000	0.280968
336.1000	0.265064
336.0000	0.275324
335.9000	0.264209
335.8000	0.273371
335.7000	0.275371
335.6000	0.286585
335.5000	0.295686
335.4000	0.277766
335.3000	0.30075
335.2000	0.30405
335.1000	0.306939
335.0000	0.272748
334.9000	0.267852
334.8000	0.27398
334.7000	0.266735
334.6000	0.272104
334.5000	0.274445
334.4000	0.26591
334.3000	0.280064
334.2000	0.2789
334.1000	0.26667
334.0000	0.277072
333.9000	0.261552
333.8000	0.256269
333.7000	0.249316
333.6000	0.236502
333.5000	0.225353
333.4000	0.241989
333.3000	0.260499
333.2000	0.247771
333.1000	0.247211
333.0000	0.248439
332.9000	0.235862
332.8000	0.26699
332.7000	0.263312
332.6000	0.266362
332.5000	0.267225
332.4000	0.279487
332.3000	0.279549
332.2000	0.276783
332.1000	0.280562
332.0000	0.295417
331.9000	0.297768
331.8000	0.322129
331.7000	0.283775
331.6000	0.278497
331.5000	0.283425
331.4000	0.283357
331.3000	0.290923
331.2000	0.269841
331.1000	0.271055
331.0000	0.27157
330.9000	0.258332
330.8000	0.220486
330.7000	0.225207
330.6000	0.228238
330.5000	0.202311
330.4000	0.194867
330.3000	0.21741
330.2000	0.188578
330.1000	0.223226
330.0000	0.246082
329.9000	0.237915
329.8000	0.205282
329.7000	0.212631
329.6000	0.220275
329.5000	0.228051
329.4000	0.246834
329.3000	0.254999
329.2000	0.283614
329.1000	0.277241
329.0000	0.287567
328.9000	0.300032
328.8000	0.282371
328.7000	0.254232
328.6000	0.246542
328.5000	0.254557
328.4000	0.234511
328.3000	0.209823
328.2000	0.231115
328.1000	0.227781
328.0000	0.210173
327.9000	0.1988
327.8000	0.192175
327.7000	0.183648
327.6000	0.161198
327.5000	0.16383
327.4000	0.15693
327.3000	0.162456
327.2000	0.176176
327.1000	0.179385
327.0000	0.207152
326.9000	0.19736
326.8000	0.204401
326.7000	0.219651
326.6000	0.228144
326.5000	0.220643
326.4000	0.214212
326.3000	0.225983
326.2000	0.222927
326.1000	0.228334
326.0000	0.261579
325.9000	0.270787
325.8000	0.271181
325.7000	0.269335
325.6000	0.271116
325.5000	0.278812
325.4000	0.282449
325.3000	0.27608
325.2000	0.27309
325.1000	0.28517
325.0000	0.282288
324.9000	0.286741
324.8000	0.322036
324.7000	0.312764
324.6000	0.313794
324.5000	0.329191
324.4000	0.304297
324.3000	0.30268
324.2000	0.308771
324.1000	0.305769
324.0000	0.299778
323.9000	0.308863
323.8000	0.298803
323.7000	0.302064
323.6000	0.310991
323.5000	0.313001
323.4000	0.299497
323.3000	0.286332
323.2000	0.264995
323.1000	0.261811
323.0000	0.246631
322.9000	0.215471
322.8000	0.225389
322.7000	0.230352
322.6000	0.225785
322.5000	0.212636
322.4000	0.205438
322.3000	0.189005
322.2000	0.190278
322.1000	0.187858
322.0000	0.202558
321.9000	0.188914
321.8000	0.193779
321.7000	0.190689
321.6000	0.187843
321.5000	0.198042
321.4000	0.200138
321.3000	0.211349
321.2000	0.21536
321.1000	0.22824
321.0000	0.229542
320.9000	0.223424
320.8000	0.226358
320.7000	0.229893
320.6000	0.220156
320.5000	0.218574
320.4000	0.197682
320.3000	0.200823
320.2000	0.205172
320.1000	0.20652
320.0000	0.196698
319.9000	0.182034
319.8000	0.176429
319.7000	0.185139
319.6000	0.173478
319.5000	0.166532
319.4000	0.170763
319.3000	0.200196
319.2000	0.198936
319.1000	0.203507
319.0000	0.212467
318.9000	0.214349
318.8000	0.218823
318.7000	0.224404
318.6000	0.230096
318.5000	0.233762
318.4000	0.251831
318.3000	0.255537
318.2000	0.267977
318.1000	0.271665
318.0000	0.263564
317.9000	0.243304
317.8000	0.249545
317.7000	0.242252
317.6000	0.247102
317.5000	0.253978
317.4000	0.250115
317.3000	0.254913
317.2000	0.250085
317.1000	0.239745
317.0000	0.236338
316.9000	0.246962
316.8000	0.246329
316.7000	0.246039
316.6000	0.248637
316.5000	0.243369
316.4000	0.23763
316.3000	0.23425
316.2000	0.22471
316.1000	0.217672
316.0000	0.198923
315.9000	0.185752
315.8000	0.184625
315.7000	0.177193
315.6000	0.175736
315.5000	0.186205
315.4000	0.186988
315.3000	0.192862
315.2000	0.190108
315.1000	0.1974
315.0000	0.186947
314.9000	0.170241
314.8000	0.168589
314.7000	0.168626
314.6000	0.187448
314.5000	0.187722
314.4000	0.209641
314.3000	0.21549
314.2000	0.211877
314.1000	0.220948
314.0000	0.227767
313.9000	0.207923
313.8000	0.197962
313.7000	0.180455
313.6000	0.17209
313.5000	0.172473
313.4000	0.171645
313.3000	0.179267
313.2000	0.187267
313.1000	0.189126
313.0000	0.163572
312.9000	0.149584
312.8000	0.131924
312.7000	0.126631
312.6000	0.137377
312.5000	0.127092
312.4000	0.113135
312.3000	0.136644
312.2000	0.131409
312.1000	0.13675
312.0000	0.131414
311.9000	0.123058
311.8000	0.12384
311.7000	0.13969
311.6000	0.149924
311.5000	0.163245
311.4000	0.148935
311.3000	0.159384
311.2000	0.175984
311.1000	0.174343
311.0000	0.165509
310.9000	0.14927
310.8000	0.177116
310.7000	0.178597
310.6000	0.197751
310.5000	0.208529
310.4000	0.219373
310.3000	0.208251
310.2000	0.217902
310.1000	0.209734
310.0000	0.204094
309.9000	0.21076
309.8000	0.221411
309.7000	0.224887
309.6000	0.21212
309.5000	0.216025
309.4000	0.214419
309.3000	0.231492
309.2000	0.217195
309.1000	0.214019
309.0000	0.204101
308.9000	0.188486
308.8000	0.183622
308.7000	0.205163
308.6000	0.194964
308.5000	0.206215
308.4000	0.193753
308.3000	0.169931
308.2000	0.177932
308.1000	0.190416
308.0000	0.202045
307.9000	0.204624
307.8000	0.210039
307.7000	0.210287
307.6000	0.201373
307.5000	0.187571
307.4000	0.193554
307.3000	0.18981
307.2000	0.180704
307.1000	0.175335
307.0000	0.185859
306.9000	0.170477
306.8000	0.182082
306.7000	0.194877
306.6000	0.195131
306.5000	0.178865
306.4000	0.180532
306.3000	0.168966
306.2000	0.169976
306.1000	0.170074
306.0000	0.172646
305.9000	0.172195
305.8000	0.166063
305.7000	0.168536
305.6000	0.185403
305.5000	0.174545
305.4000	0.173025
305.3000	0.182608
305.2000	0.179239
305.1000	0.190489
305.0000	0.181527
304.9000	0.199832
304.8000	0.182964
304.7000	0.189722
304.6000	0.180714
304.5000	0.182249
304.4000	0.175652
304.3000	0.18767
304.2000	0.18363
304.1000	0.200697
304.0000	0.198955
303.9000	0.199017
303.8000	0.202244
303.7000	0.189644
303.6000	0.200622
303.5000	0.189112
303.4000	0.19855
303.3000	0.187962
303.2000	0.194696
303.1000	0.194339
303.0000	0.188493
302.9000	0.18476
302.8000	0.179157
302.7000	0.171147
302.6000	0.179076
302.5000	0.166065
302.4000	0.168842
302.3000	0.182136
302.2000	0.178907
302.1000	0.173206
302.0000	0.177851
301.9000	0.176449
301.8000	0.172346
301.7000	0.161158
301.6000	0.163332
301.5000	0.158974
301.4000	0.166623
301.3000	0.166544
301.2000	0.173572
301.1000	0.175444
301.0000	0.155058
300.9000	0.135995
300.8000	0.124273
300.7000	0.116416
300.6000	0.107269
300.5000	0.130999
300.4000	0.117396
300.3000	0.128784
300.2000	0.124855
300.1000	0.136101
300.0000	0.144121
