TITLE	7.3
DATA TYPE	ULTRAVIOLET SPECTRUM
ORIGIN	JASCO
OWNER	
DATE	19/11/21
TIME	16:53:40
SPECTROMETER/DATA SYSTEM	
RESOLUTION	
DELTAX	-1
XUNITS	NANOMETERS
YUNITS	TRANSMITTANCE
FIRSTX	 2500.0000
LASTX	  300.0000
NPOINTS	    2201
FIRSTY	    75.60320
MAXY	    86.05532
MINY	     0.00533
XYDATA
2500.0000	75.6032
2499.0000	75.4781
2498.0000	75.3565
2497.0000	75.261
2496.0000	75.074
2495.0000	74.8782
2494.0000	74.9435
2493.0000	74.6688
2492.0000	74.5451
2491.0000	74.4026
2490.0000	74.2798
2489.0000	74.1899
2488.0000	74.0482
2487.0000	73.9575
2486.0000	73.884
2485.0000	73.7488
2484.0000	73.6722
2483.0000	73.5644
2482.0000	73.51
2481.0000	73.2044
2480.0000	73.1169
2479.0000	73.0947
2478.0000	72.9973
2477.0000	72.7775
2476.0000	72.6432
2475.0000	72.5747
2474.0000	72.5966
2473.0000	72.4287
2472.0000	72.334
2471.0000	72.4281
2470.0000	72.4105
2469.0000	72.4161
2468.0000	72.2831
2467.0000	72.2835
2466.0000	72.2588
2465.0000	72.1587
2464.0000	72.0841
2463.0000	72.0433
2462.0000	72.1201
2461.0000	72.0169
2460.0000	71.9052
2459.0000	71.8624
2458.0000	71.8994
2457.0000	71.8026
2456.0000	71.7048
2455.0000	71.793
2454.0000	71.9807
2453.0000	71.8809
2452.0000	71.9617
2451.0000	72.038
2450.0000	72.0848
2449.0000	72.0727
2448.0000	72.0412
2447.0000	72.0928
2446.0000	72.1401
2445.0000	72.1281
2444.0000	72.1604
2443.0000	72.2927
2442.0000	72.401
2441.0000	72.3584
2440.0000	72.4644
2439.0000	72.6657
2438.0000	72.6985
2437.0000	72.7771
2436.0000	72.9167
2435.0000	73.0583
2434.0000	73.1034
2433.0000	73.1191
2432.0000	73.3169
2431.0000	73.4734
2430.0000	73.5255
2429.0000	73.5802
2428.0000	73.7512
2427.0000	73.8915
2426.0000	73.9903
2425.0000	74.0293
2424.0000	74.1794
2423.0000	74.3027
2422.0000	74.4366
2421.0000	74.5427
2420.0000	74.7173
2419.0000	74.9323
2418.0000	74.9692
2417.0000	75.17
2416.0000	75.3994
2415.0000	75.5333
2414.0000	75.6881
2413.0000	75.7866
2412.0000	76.0254
2411.0000	76.206
2410.0000	76.3397
2409.0000	76.5645
2408.0000	76.8795
2407.0000	77.0153
2406.0000	77.1627
2405.0000	77.3737
2404.0000	77.5762
2403.0000	77.6674
2402.0000	77.7635
2401.0000	78.0318
2400.0000	78.2893
2399.0000	78.4844
2398.0000	78.6481
2397.0000	78.9848
2396.0000	79.1422
2395.0000	79.2924
2394.0000	79.4601
2393.0000	79.6925
2392.0000	79.897
2391.0000	80.0679
2390.0000	80.2549
2389.0000	80.5193
2388.0000	80.6761
2387.0000	80.8222
2386.0000	81.1241
2385.0000	81.2524
2384.0000	81.4135
2383.0000	81.624
2382.0000	81.8097
2381.0000	81.9641
2380.0000	82.1541
2379.0000	82.4013
2378.0000	82.5705
2377.0000	82.7148
2376.0000	82.8569
2375.0000	83.0809
2374.0000	83.162
2373.0000	83.2372
2372.0000	83.4461
2371.0000	83.6727
2370.0000	83.8199
2369.0000	83.9208
2368.0000	84.1198
2367.0000	84.2801
2366.0000	84.3338
2365.0000	84.409
2364.0000	84.548
2363.0000	84.5461
2362.0000	84.6314
2361.0000	84.7422
2360.0000	84.8188
2359.0000	84.7848
2358.0000	84.9287
2357.0000	85.0488
2356.0000	85.0205
2355.0000	85.066
2354.0000	85.0946
2353.0000	85.0869
2352.0000	85.1186
2351.0000	85.0601
2350.0000	85.0763
2349.0000	85.1423
2348.0000	85.11
2347.0000	85.0633
2346.0000	85.085
2345.0000	85.0682
2344.0000	85.0371
2343.0000	85.0343
2342.0000	84.9532
2341.0000	84.8844
2340.0000	84.9308
2339.0000	84.835
2338.0000	84.7291
2337.0000	84.5744
2336.0000	84.5149
2335.0000	84.3911
2334.0000	84.2924
2333.0000	84.1312
2332.0000	84.0368
2331.0000	83.8662
2330.0000	83.7065
2329.0000	83.5974
2328.0000	83.4411
2327.0000	83.2617
2326.0000	83.1606
2325.0000	83.0633
2324.0000	82.8708
2323.0000	82.7954
2322.0000	82.5567
2321.0000	82.3738
2320.0000	82.2197
2319.0000	82.0365
2318.0000	81.7973
2317.0000	81.5759
2316.0000	81.4596
2315.0000	81.3371
2314.0000	81.0778
2313.0000	80.8978
2312.0000	80.7086
2311.0000	80.5497
2310.0000	80.2623
2309.0000	80.0888
2308.0000	79.8974
2307.0000	79.6717
2306.0000	79.4408
2305.0000	79.1577
2304.0000	78.9716
2303.0000	78.6805
2302.0000	78.4497
2301.0000	78.2583
2300.0000	78.0042
2299.0000	77.7516
2298.0000	77.555
2297.0000	77.4227
2296.0000	77.1961
2295.0000	77.0496
2294.0000	76.9263
2293.0000	76.6963
2292.0000	76.499
2291.0000	76.3411
2290.0000	76.2036
2289.0000	75.9298
2288.0000	75.6969
2287.0000	75.5442
2286.0000	75.4023
2285.0000	75.2448
2284.0000	75.1189
2283.0000	75.0063
2282.0000	74.8613
2281.0000	74.7088
2280.0000	74.5228
2279.0000	74.3366
2278.0000	74.1724
2277.0000	74.0357
2276.0000	73.8915
2275.0000	73.6294
2274.0000	73.5397
2273.0000	73.4559
2272.0000	73.328
2271.0000	73.2277
2270.0000	73.069
2269.0000	73.0376
2268.0000	72.9877
2267.0000	72.8586
2266.0000	72.7054
2265.0000	72.6804
2264.0000	72.6861
2263.0000	72.6097
2262.0000	72.5503
2261.0000	72.5144
2260.0000	72.4529
2259.0000	72.3753
2258.0000	72.2687
2257.0000	72.2099
2256.0000	72.2225
2255.0000	72.1168
2254.0000	72.1204
2253.0000	72.1413
2252.0000	72.2221
2251.0000	72.2115
2250.0000	72.2217
2249.0000	72.2433
2248.0000	72.2438
2247.0000	72.2615
2246.0000	72.2757
2245.0000	72.3491
2244.0000	72.4584
2243.0000	72.4697
2242.0000	72.5116
2241.0000	72.6593
2240.0000	72.6925
2239.0000	72.7302
2238.0000	72.8285
2237.0000	72.9303
2236.0000	73.0565
2235.0000	73.1684
2234.0000	73.2396
2233.0000	73.3685
2232.0000	73.4968
2231.0000	73.6391
2230.0000	73.7143
2229.0000	73.8592
2228.0000	73.9592
2227.0000	74.1727
2226.0000	74.3429
2225.0000	74.543
2224.0000	74.6939
2223.0000	74.9129
2222.0000	75.1365
2221.0000	75.2778
2220.0000	75.4928
2219.0000	75.631
2218.0000	75.7897
2217.0000	75.9276
2216.0000	76.0718
2215.0000	76.2741
2214.0000	76.4744
2213.0000	76.7135
2212.0000	76.9442
2211.0000	77.2718
2210.0000	77.5006
2209.0000	77.8136
2208.0000	78.0405
2207.0000	78.3162
2206.0000	78.5872
2205.0000	78.7626
2204.0000	79.0171
2203.0000	79.2037
2202.0000	79.4213
2201.0000	79.6349
2200.0000	79.8567
2199.0000	80.1421
2198.0000	80.3665
2197.0000	80.6273
2196.0000	80.9372
2195.0000	81.1322
2194.0000	81.3709
2193.0000	81.5614
2192.0000	81.7908
2191.0000	82.0004
2190.0000	82.2636
2189.0000	82.4722
2188.0000	82.6582
2187.0000	82.895
2186.0000	83.0927
2185.0000	83.2702
2184.0000	83.5427
2183.0000	83.6652
2182.0000	83.8879
2181.0000	84.0562
2180.0000	84.2718
2179.0000	84.5009
2178.0000	84.6656
2177.0000	84.8487
2176.0000	84.9349
2175.0000	85.0764
2174.0000	85.1896
2173.0000	85.2982
2172.0000	85.4116
2171.0000	85.4985
2170.0000	85.6474
2169.0000	85.7057
2168.0000	85.7293
2167.0000	85.7758
2166.0000	85.8333
2165.0000	85.9139
2164.0000	85.8544
2163.0000	85.9228
2162.0000	85.9295
2161.0000	85.9884
2160.0000	85.9967
2159.0000	85.9026
2158.0000	85.8873
2157.0000	85.7737
2156.0000	85.7642
2155.0000	85.7364
2154.0000	85.6476
2153.0000	85.6204
2152.0000	85.547
2151.0000	85.4328
2150.0000	85.3773
2149.0000	85.2014
2148.0000	85.0662
2147.0000	84.8388
2146.0000	84.6951
2145.0000	84.4869
2144.0000	84.2743
2143.0000	84.1206
2142.0000	83.9274
2141.0000	83.7297
2140.0000	83.4942
2139.0000	83.2368
2138.0000	83.0734
2137.0000	82.8674
2136.0000	82.5885
2135.0000	82.2978
2134.0000	82.1103
2133.0000	81.8048
2132.0000	81.6344
2131.0000	81.3665
2130.0000	81.1576
2129.0000	81.0139
2128.0000	80.7813
2127.0000	80.5272
2126.0000	80.3566
2125.0000	80.0657
2124.0000	79.7483
2123.0000	79.4731
2122.0000	79.1968
2121.0000	78.9647
2120.0000	78.7494
2119.0000	78.4119
2118.0000	78.2147
2117.0000	77.9835
2116.0000	77.7013
2115.0000	77.4033
2114.0000	77.1082
2113.0000	76.7983
2112.0000	76.5753
2111.0000	76.3674
2110.0000	76.0658
2109.0000	75.8802
2108.0000	75.6989
2107.0000	75.4923
2106.0000	75.298
2105.0000	75.0599
2104.0000	74.8542
2103.0000	74.6436
2102.0000	74.4638
2101.0000	74.2839
2100.0000	74.0955
2099.0000	73.9284
2098.0000	73.7153
2097.0000	73.6356
2096.0000	73.47
2095.0000	73.2471
2094.0000	73.1685
2093.0000	73.0477
2092.0000	72.8905
2091.0000	72.8016
2090.0000	72.6204
2089.0000	72.5227
2088.0000	72.4126
2087.0000	72.284
2086.0000	72.2188
2085.0000	72.138
2084.0000	72.0839
2083.0000	72.0697
2082.0000	71.9473
2081.0000	71.8313
2080.0000	71.8245
2079.0000	71.8352
2078.0000	71.7562
2077.0000	71.7842
2076.0000	71.804
2075.0000	71.8353
2074.0000	71.9486
2073.0000	71.9215
2072.0000	71.9613
2071.0000	72.1193
2070.0000	72.0802
2069.0000	72.1437
2068.0000	72.2314
2067.0000	72.2297
2066.0000	72.3557
2065.0000	72.4601
2064.0000	72.517
2063.0000	72.7194
2062.0000	72.8097
2061.0000	72.9078
2060.0000	73.1516
2059.0000	73.2834
2058.0000	73.4676
2057.0000	73.6967
2056.0000	73.8233
2055.0000	74.0333
2054.0000	74.2243
2053.0000	74.354
2052.0000	74.5968
2051.0000	74.7757
2050.0000	74.9824
2049.0000	75.2329
2048.0000	75.494
2047.0000	75.6756
2046.0000	76.0028
2045.0000	76.1876
2044.0000	76.4011
2043.0000	76.7331
2042.0000	76.9258
2041.0000	77.1785
2040.0000	77.4935
2039.0000	77.7112
2038.0000	78.088
2037.0000	78.3669
2036.0000	78.5666
2035.0000	78.9215
2034.0000	79.1536
2033.0000	79.4872
2032.0000	79.8794
2031.0000	80.1088
2030.0000	80.4584
2029.0000	80.6948
2028.0000	80.9679
2027.0000	81.3506
2026.0000	81.5042
2025.0000	81.7686
2024.0000	82.0121
2023.0000	82.2578
2022.0000	82.6367
2021.0000	82.8423
2020.0000	83.0866
2019.0000	83.319
2018.0000	83.5619
2017.0000	83.8152
2016.0000	83.9944
2015.0000	84.1475
2014.0000	84.4376
2013.0000	84.538
2012.0000	84.6775
2011.0000	84.8599
2010.0000	84.9312
2009.0000	85.1288
2008.0000	85.2138
2007.0000	85.3507
2006.0000	85.5193
2005.0000	85.5464
2004.0000	85.7463
2003.0000	85.7994
2002.0000	85.8632
2001.0000	85.9223
2000.0000	85.8731
1999.0000	85.9637
1998.0000	85.9274
1997.0000	85.8967
1996.0000	85.942
1995.0000	85.817
1994.0000	85.7225
1993.0000	85.6647
1992.0000	85.472
1991.0000	85.4266
1990.0000	85.2412
1989.0000	85.0616
1988.0000	84.9866
1987.0000	84.765
1986.0000	84.7121
1985.0000	84.5217
1984.0000	84.3492
1983.0000	84.1974
1982.0000	83.9426
1981.0000	83.7562
1980.0000	83.4908
1979.0000	83.1878
1978.0000	82.9521
1977.0000	82.6468
1976.0000	82.492
1975.0000	82.2283
1974.0000	81.9229
1973.0000	81.7365
1972.0000	81.3575
1971.0000	81.0936
1970.0000	80.7589
1969.0000	80.4739
1968.0000	80.2154
1967.0000	79.8376
1966.0000	79.5908
1965.0000	79.3172
1964.0000	78.9647
1963.0000	78.7031
1962.0000	78.2828
1961.0000	78.0491
1960.0000	77.7999
1959.0000	77.4115
1958.0000	77.2242
1957.0000	76.8706
1956.0000	76.6714
1955.0000	76.4553
1954.0000	76.0958
1953.0000	75.9028
1952.0000	75.6333
1951.0000	75.4379
1950.0000	75.1792
1949.0000	74.8617
1948.0000	74.7032
1947.0000	74.3851
1946.0000	74.2118
1945.0000	73.9727
1944.0000	73.7723
1943.0000	73.6905
1942.0000	73.4582
1941.0000	73.3986
1940.0000	73.2931
1939.0000	73.1879
1938.0000	73.0976
1937.0000	72.9771
1936.0000	72.9586
1935.0000	72.9281
1934.0000	72.8232
1933.0000	72.7847
1932.0000	72.7205
1931.0000	72.8266
1930.0000	72.8328
1929.0000	72.8307
1928.0000	72.8962
1927.0000	72.8369
1926.0000	72.913
1925.0000	72.8186
1924.0000	72.7524
1923.0000	72.6725
1922.0000	72.6408
1921.0000	72.7904
1920.0000	72.8351
1919.0000	73.0194
1918.0000	73.2047
1917.0000	73.4279
1916.0000	73.7237
1915.0000	73.9342
1914.0000	74.1075
1913.0000	74.2526
1912.0000	74.4101
1911.0000	74.5653
1910.0000	74.6852
1909.0000	74.9304
1908.0000	74.9233
1907.0000	75.0901
1906.0000	75.1737
1905.0000	75.3568
1904.0000	75.5753
1903.0000	75.8096
1902.0000	76.3065
1901.0000	76.7352
1900.0000	77.1692
1899.0000	77.5183
1898.0000	77.7468
1897.0000	77.9706
1896.0000	78.149
1895.0000	78.3766
1894.0000	78.701
1893.0000	79.0808
1892.0000	79.4476
1891.0000	79.7487
1890.0000	80.1641
1889.0000	80.4873
1888.0000	80.7597
1887.0000	80.9757
1886.0000	81.224
1885.0000	81.5822
1884.0000	81.8686
1883.0000	82.1926
1882.0000	82.452
1881.0000	82.7734
1880.0000	82.9798
1879.0000	83.1239
1878.0000	83.2666
1877.0000	83.3001
1876.0000	83.3169
1875.0000	83.2864
1874.0000	83.3653
1873.0000	83.6919
1872.0000	84.0625
1871.0000	84.5326
1870.0000	85.013
1869.0000	85.3263
1868.0000	85.5284
1867.0000	85.676
1866.0000	85.7166
1865.0000	85.7612
1864.0000	85.6664
1863.0000	85.6094
1862.0000	85.674
1861.0000	85.7005
1860.0000	85.7623
1859.0000	85.6384
1858.0000	85.7196
1857.0000	85.6945
1856.0000	85.6294
1855.0000	85.4773
1854.0000	85.3031
1853.0000	85.0982
1852.0000	84.7897
1851.0000	84.5395
1850.0000	84.3475
1849.0000	84.1658
1848.0000	84.0005
1847.0000	83.7125
1846.0000	83.3915
1845.0000	83.014
1844.0000	82.6214
1843.0000	82.1483
1842.0000	81.7137
1841.0000	81.3878
1840.0000	81.2064
1839.0000	81.0851
1838.0000	80.8805
1837.0000	80.636
1836.0000	80.345
1835.0000	79.9882
1834.0000	79.6472
1833.0000	79.2071
1832.0000	78.7828
1831.0000	78.3912
1830.0000	77.9947
1829.0000	77.5964
1828.0000	77.2015
1827.0000	76.8884
1826.0000	76.5778
1825.0000	76.2634
1824.0000	76.0629
1823.0000	75.9463
1822.0000	75.7383
1821.0000	75.5476
1820.0000	75.266
1819.0000	75.0032
1818.0000	74.7205
1817.0000	74.4468
1816.0000	74.1974
1815.0000	73.953
1814.0000	73.7213
1813.0000	73.5406
1812.0000	73.4271
1811.0000	73.2617
1810.0000	73.1016
1809.0000	72.9689
1808.0000	72.8529
1807.0000	72.7161
1806.0000	72.5695
1805.0000	72.4907
1804.0000	72.3886
1803.0000	72.3231
1802.0000	72.1732
1801.0000	72.1752
1800.0000	72.209
1799.0000	72.1948
1798.0000	72.2277
1797.0000	72.2392
1796.0000	72.2465
1795.0000	72.3076
1794.0000	72.4108
1793.0000	72.5258
1792.0000	72.6279
1791.0000	72.7854
1790.0000	72.955
1789.0000	73.1386
1788.0000	73.2839
1787.0000	73.4155
1786.0000	73.6366
1785.0000	73.8637
1784.0000	74.0832
1783.0000	74.31
1782.0000	74.562
1781.0000	74.8371
1780.0000	75.0962
1779.0000	75.3759
1778.0000	75.6871
1777.0000	75.9966
1776.0000	76.3531
1775.0000	76.6443
1774.0000	77.0131
1773.0000	77.3365
1772.0000	77.6822
1771.0000	78.0803
1770.0000	78.4254
1769.0000	78.8039
1768.0000	79.1953
1767.0000	79.5539
1766.0000	79.9544
1765.0000	80.3107
1764.0000	80.6761
1763.0000	81.0367
1762.0000	81.4078
1761.0000	81.7842
1760.0000	82.1234
1759.0000	82.5025
1758.0000	82.8623
1757.0000	83.1787
1756.0000	83.4957
1755.0000	83.8058
1754.0000	84.1197
1753.0000	84.3546
1752.0000	84.6566
1751.0000	84.8927
1750.0000	85.1116
1749.0000	85.2991
1748.0000	85.5059
1747.0000	85.6164
1746.0000	85.7623
1745.0000	85.8672
1744.0000	85.9553
1743.0000	85.9991
1742.0000	86.0553
1741.0000	86.0232
1740.0000	86.0277
1739.0000	85.987
1738.0000	85.9248
1737.0000	85.8391
1736.0000	85.7432
1735.0000	85.6029
1734.0000	85.4198
1733.0000	85.2156
1732.0000	85.015
1731.0000	84.8226
1730.0000	84.5877
1729.0000	84.3186
1728.0000	84.0481
1727.0000	83.7791
1726.0000	83.4615
1725.0000	83.1183
1724.0000	82.738
1723.0000	82.4069
1722.0000	82.0424
1721.0000	81.6746
1720.0000	81.2824
1719.0000	80.8622
1718.0000	80.5054
1717.0000	80.1388
1716.0000	79.7148
1715.0000	79.3333
1714.0000	78.9329
1713.0000	78.5448
1712.0000	78.1508
1711.0000	77.766
1710.0000	77.3954
1709.0000	76.979
1708.0000	76.5701
1707.0000	76.2309
1706.0000	75.842
1705.0000	75.4945
1704.0000	75.1318
1703.0000	74.8312
1702.0000	74.5534
1701.0000	74.2402
1700.0000	74.0312
1699.0000	73.735
1698.0000	73.4916
1697.0000	73.2745
1696.0000	73.0579
1695.0000	72.8104
1694.0000	72.6228
1693.0000	72.5009
1692.0000	72.371
1691.0000	72.2466
1690.0000	72.1816
1689.0000	72.1067
1688.0000	72.065
1687.0000	72.0299
1686.0000	72.0128
1685.0000	71.9995
1684.0000	72.0228
1683.0000	72.0548
1682.0000	72.1216
1681.0000	72.1922
1680.0000	72.3103
1679.0000	72.4399
1678.0000	72.5535
1677.0000	72.7597
1676.0000	72.9698
1675.0000	73.2059
1674.0000	73.395
1673.0000	73.6499
1672.0000	73.919
1671.0000	74.1599
1670.0000	74.4673
1669.0000	74.7474
1668.0000	75.0871
1667.0000	75.4379
1666.0000	75.8008
1665.0000	76.1648
1664.0000	76.5411
1663.0000	76.9175
1662.0000	77.3533
1661.0000	77.7424
1660.0000	78.1161
1659.0000	78.5221
1658.0000	78.9314
1657.0000	79.3558
1656.0000	79.7475
1655.0000	80.1676
1654.0000	80.6132
1653.0000	81.0536
1652.0000	81.5426
1651.0000	81.9262
1650.0000	82.3521
1649.0000	82.7346
1648.0000	83.1044
1647.0000	83.4365
1646.0000	83.776
1645.0000	84.0349
1644.0000	84.3155
1643.0000	84.5967
1642.0000	84.8276
1641.0000	85.0245
1640.0000	85.2409
1639.0000	85.4418
1638.0000	85.537
1637.0000	85.6284
1636.0000	85.6969
1635.0000	85.7972
1634.0000	85.7837
1633.0000	85.7743
1632.0000	85.7518
1631.0000	85.6804
1630.0000	85.5452
1629.0000	85.3631
1628.0000	85.1543
1627.0000	84.9818
1626.0000	84.7135
1625.0000	84.4495
1624.0000	84.1575
1623.0000	83.8391
1622.0000	83.522
1621.0000	83.1222
1620.0000	82.7647
1619.0000	82.3465
1618.0000	81.9393
1617.0000	81.527
1616.0000	81.0704
1615.0000	80.6528
1614.0000	80.2076
1613.0000	79.7596
1612.0000	79.2817
1611.0000	78.8416
1610.0000	78.4121
1609.0000	77.9746
1608.0000	77.5343
1607.0000	77.1245
1606.0000	76.7306
1605.0000	76.3402
1604.0000	75.9472
1603.0000	75.5738
1602.0000	75.2458
1601.0000	75.0275
1600.0000	74.9201
1599.0000	74.9386
1598.0000	74.9706
1597.0000	74.8909
1596.0000	74.7263
1595.0000	74.4279
1594.0000	74.0146
1593.0000	73.5485
1592.0000	73.0383
1591.0000	72.6488
1590.0000	72.4409
1589.0000	72.3158
1588.0000	72.2355
1587.0000	72.2343
1586.0000	72.2659
1585.0000	72.3236
1584.0000	72.3414
1583.0000	72.442
1582.0000	72.5957
1581.0000	72.7109
1580.0000	72.8422
1579.0000	73.0094
1578.0000	73.2041
1577.0000	73.4373
1576.0000	73.7046
1575.0000	73.9435
1574.0000	74.2401
1573.0000	74.5842
1572.0000	74.9329
1571.0000	75.3102
1570.0000	75.6866
1569.0000	76.1101
1568.0000	76.5249
1567.0000	76.9745
1566.0000	77.4026
1565.0000	77.8432
1564.0000	78.3222
1563.0000	78.7521
1562.0000	79.2149
1561.0000	79.6899
1560.0000	80.1662
1559.0000	80.6338
1558.0000	81.152
1557.0000	81.5925
1556.0000	82.0753
1555.0000	82.4787
1554.0000	82.8898
1553.0000	83.2813
1552.0000	83.6237
1551.0000	83.9851
1550.0000	84.2771
1549.0000	84.5881
1548.0000	84.8754
1547.0000	85.084
1546.0000	85.2715
1545.0000	85.4523
1544.0000	85.547
1543.0000	85.639
1542.0000	85.7064
1541.0000	85.7035
1540.0000	85.6634
1539.0000	85.6007
1538.0000	85.5244
1537.0000	85.3512
1536.0000	85.1205
1535.0000	84.8819
1534.0000	84.5826
1533.0000	84.2583
1532.0000	83.9231
1531.0000	83.5474
1530.0000	83.2019
1529.0000	82.7933
1528.0000	82.3512
1527.0000	81.9507
1526.0000	81.502
1525.0000	81.0075
1524.0000	80.5
1523.0000	79.98
1522.0000	79.4436
1521.0000	78.95
1520.0000	78.4217
1519.0000	77.8942
1518.0000	77.3793
1517.0000	76.91
1516.0000	76.4684
1515.0000	76.0312
1514.0000	75.6036
1513.0000	75.1932
1512.0000	74.8112
1511.0000	74.4341
1510.0000	74.0755
1509.0000	73.741
1508.0000	73.4536
1507.0000	73.1524
1506.0000	72.883
1505.0000	72.6331
1504.0000	72.4394
1503.0000	72.2665
1502.0000	72.066
1501.0000	71.9504
1500.0000	71.9028
1499.0000	71.8907
1498.0000	71.8854
1497.0000	71.9121
1496.0000	71.9819
1495.0000	72.0494
1494.0000	72.1591
1493.0000	72.3019
1492.0000	72.4706
1491.0000	72.6958
1490.0000	72.9319
1489.0000	73.2335
1488.0000	73.5554
1487.0000	73.9059
1486.0000	74.2568
1485.0000	74.6565
1484.0000	75.0726
1483.0000	75.5186
1482.0000	75.98
1481.0000	76.4703
1480.0000	76.983
1479.0000	77.5107
1478.0000	78.0219
1477.0000	78.5314
1476.0000	79.0549
1475.0000	79.5954
1474.0000	80.1364
1473.0000	80.6633
1472.0000	81.1591
1471.0000	81.6964
1470.0000	82.2232
1469.0000	82.679
1468.0000	83.1168
1467.0000	83.5527
1466.0000	83.9534
1465.0000	84.3276
1464.0000	84.6656
1463.0000	84.9696
1462.0000	85.2051
1461.0000	85.4011
1460.0000	85.5583
1459.0000	85.6699
1458.0000	85.709
1457.0000	85.6996
1456.0000	85.6863
1455.0000	85.5795
1454.0000	85.418
1453.0000	85.2115
1452.0000	84.9629
1451.0000	84.6476
1450.0000	84.3093
1449.0000	83.95
1448.0000	83.5625
1447.0000	83.1249
1446.0000	82.6432
1445.0000	82.1482
1444.0000	81.6051
1443.0000	81.076
1442.0000	80.5234
1441.0000	79.9737
1440.0000	79.3871
1439.0000	78.8573
1438.0000	78.3003
1437.0000	77.7305
1436.0000	77.1509
1435.0000	76.6131
1434.0000	76.0829
1433.0000	75.5475
1432.0000	75.0652
1431.0000	74.5949
1430.0000	74.1699
1429.0000	73.7792
1428.0000	73.4549
1427.0000	73.125
1426.0000	72.8223
1425.0000	72.5765
1424.0000	72.3845
1423.0000	72.2162
1422.0000	72.0674
1421.0000	71.9667
1420.0000	71.9192
1419.0000	71.8857
1418.0000	71.8517
1417.0000	71.9214
1416.0000	72.0159
1415.0000	72.1691
1414.0000	72.3442
1413.0000	72.5836
1412.0000	72.9005
1411.0000	73.219
1410.0000	73.5273
1409.0000	73.865
1408.0000	74.2322
1407.0000	74.6589
1406.0000	75.0822
1405.0000	75.5946
1404.0000	76.155
1403.0000	76.7513
1402.0000	77.3523
1401.0000	77.8944
1400.0000	78.4775
1399.0000	79.0042
1398.0000	79.5328
1397.0000	80.0286
1396.0000	80.5649
1395.0000	81.1078
1394.0000	81.6961
1393.0000	82.2632
1392.0000	82.7784
1391.0000	83.3008
1390.0000	83.7711
1389.0000	84.1768
1388.0000	84.4838
1387.0000	84.7824
1386.0000	85.0155
1385.0000	85.2075
1384.0000	85.3343
1383.0000	85.3664
1382.0000	85.3862
1381.0000	85.2936
1380.0000	85.0986
1379.0000	84.9015
1378.0000	84.5935
1377.0000	84.2882
1376.0000	83.9839
1375.0000	83.5401
1374.0000	83.046
1373.0000	82.4854
1372.0000	81.8819
1371.0000	81.3049
1370.0000	80.6896
1369.0000	80.1622
1368.0000	79.6245
1367.0000	79.0959
1366.0000	78.5821
1365.0000	78.0626
1364.0000	77.4967
1363.0000	76.8875
1362.0000	76.3211
1361.0000	75.7963
1360.0000	75.2759
1359.0000	74.7915
1358.0000	74.3159
1357.0000	73.8712
1356.0000	73.4156
1355.0000	73.0408
1354.0000	72.702
1353.0000	72.3921
1352.0000	72.15
1351.0000	71.9628
1350.0000	71.8799
1349.0000	71.8263
1348.0000	71.8163
1347.0000	71.8662
1346.0000	71.9821
1345.0000	72.14
1344.0000	72.3141
1343.0000	72.5766
1342.0000	72.8551
1341.0000	73.2076
1340.0000	73.5657
1339.0000	73.9772
1338.0000	74.4715
1337.0000	74.9626
1336.0000	75.4931
1335.0000	76.0584
1334.0000	76.6193
1333.0000	77.2273
1332.0000	77.8689
1331.0000	78.506
1330.0000	79.1444
1329.0000	79.7977
1328.0000	80.45
1327.0000	81.1158
1326.0000	81.7079
1325.0000	82.3267
1324.0000	82.87
1323.0000	83.3932
1322.0000	83.8562
1321.0000	84.2419
1320.0000	84.5912
1319.0000	84.8793
1318.0000	85.0618
1317.0000	85.179
1316.0000	85.2458
1315.0000	85.2364
1314.0000	85.1513
1313.0000	84.9706
1312.0000	84.755
1311.0000	84.4676
1310.0000	84.0835
1309.0000	83.6558
1308.0000	83.1306
1307.0000	82.5963
1306.0000	81.9966
1305.0000	81.3753
1304.0000	80.745
1303.0000	80.0592
1302.0000	79.3613
1301.0000	78.716
1300.0000	78.0324
1299.0000	77.3506
1298.0000	76.6921
1297.0000	76.037
1296.0000	75.436
1295.0000	74.8331
1294.0000	74.2517
1293.0000	73.7415
1292.0000	73.2546
1291.0000	72.8216
1290.0000	72.4458
1289.0000	72.0905
1288.0000	71.829
1287.0000	71.6357
1286.0000	71.4978
1285.0000	71.4075
1284.0000	71.3726
1283.0000	71.4402
1282.0000	71.552
1281.0000	71.6715
1280.0000	71.8922
1279.0000	72.1687
1278.0000	72.4965
1277.0000	72.9008
1276.0000	73.3499
1275.0000	73.8549
1274.0000	74.4176
1273.0000	74.9965
1272.0000	75.6221
1271.0000	76.2718
1270.0000	76.9439
1269.0000	77.6466
1268.0000	78.3706
1267.0000	79.1015
1266.0000	79.8197
1265.0000	80.558
1264.0000	81.2519
1263.0000	81.9234
1262.0000	82.5422
1261.0000	83.1071
1260.0000	83.6202
1259.0000	84.069
1258.0000	84.4175
1257.0000	84.7399
1256.0000	84.9639
1255.0000	85.1083
1254.0000	85.132
1253.0000	85.0586
1252.0000	84.9101
1251.0000	84.6659
1250.0000	84.3344
1249.0000	83.891
1248.0000	83.4165
1247.0000	82.8557
1246.0000	82.2713
1245.0000	81.6051
1244.0000	80.8943
1243.0000	80.177
1242.0000	79.4453
1241.0000	78.7075
1240.0000	77.9329
1239.0000	77.1864
1238.0000	76.4576
1237.0000	75.7425
1236.0000	75.0619
1235.0000	74.4159
1234.0000	73.8296
1233.0000	73.2927
1232.0000	72.8399
1231.0000	72.452
1230.0000	72.1187
1229.0000	71.8402
1228.0000	71.647
1227.0000	71.5036
1226.0000	71.4418
1225.0000	71.4463
1224.0000	71.5386
1223.0000	71.6838
1222.0000	71.9323
1221.0000	72.2267
1220.0000	72.5924
1219.0000	73.0556
1218.0000	73.5611
1217.0000	74.1553
1216.0000	74.7828
1215.0000	75.4555
1214.0000	76.1804
1213.0000	76.9431
1212.0000	77.7163
1211.0000	78.5115
1210.0000	79.2988
1209.0000	80.0712
1208.0000	80.8438
1207.0000	81.5497
1206.0000	82.2144
1205.0000	82.8557
1204.0000	83.406
1203.0000	83.8731
1202.0000	84.2548
1201.0000	84.5257
1200.0000	84.729
1199.0000	84.8274
1198.0000	84.7947
1197.0000	84.6534
1196.0000	84.4126
1195.0000	84.0408
1194.0000	83.566
1193.0000	83.0421
1192.0000	82.4473
1191.0000	81.7829
1190.0000	81.0429
1189.0000	80.2548
1188.0000	79.4714
1187.0000	78.6479
1186.0000	77.7739
1185.0000	76.9482
1184.0000	76.144
1183.0000	75.4079
1182.0000	74.7088
1181.0000	74.0675
1180.0000	73.4789
1179.0000	72.9359
1178.0000	72.458
1177.0000	72.0887
1176.0000	71.7834
1175.0000	71.5567
1174.0000	71.4106
1173.0000	71.3536
1172.0000	71.4065
1171.0000	71.5283
1170.0000	71.7231
1169.0000	72.0011
1168.0000	72.3783
1167.0000	72.8301
1166.0000	73.3717
1165.0000	74.0087
1164.0000	74.68
1163.0000	75.4415
1162.0000	76.2425
1161.0000	77.0712
1160.0000	77.9435
1159.0000	78.8271
1158.0000	79.7109
1157.0000	80.5635
1156.0000	81.3774
1155.0000	82.1461
1154.0000	82.8194
1153.0000	83.3725
1152.0000	83.8739
1151.0000	84.2645
1150.0000	84.512
1149.0000	84.6839
1148.0000	84.7083
1147.0000	84.6056
1146.0000	84.3686
1145.0000	84.0006
1144.0000	83.5242
1143.0000	82.937
1142.0000	82.2851
1141.0000	81.5522
1140.0000	80.7693
1139.0000	79.9147
1138.0000	79.0581
1137.0000	78.181
1136.0000	77.2886
1135.0000	76.4521
1134.0000	75.6006
1133.0000	74.8299
1132.0000	74.0726
1131.0000	73.3893
1130.0000	72.8127
1129.0000	72.291
1128.0000	71.865
1127.0000	71.521
1126.0000	71.3198
1125.0000	71.1855
1124.0000	71.1751
1123.0000	71.2187
1122.0000	71.4323
1121.0000	71.7209
1120.0000	72.1111
1119.0000	72.5808
1118.0000	73.182
1117.0000	73.8677
1116.0000	74.6309
1115.0000	75.4668
1114.0000	76.3227
1113.0000	77.2306
1112.0000	78.1815
1111.0000	79.1037
1110.0000	79.9963
1109.0000	80.8626
1108.0000	81.6732
1107.0000	82.4299
1106.0000	83.084
1105.0000	83.6495
1104.0000	84.0909
1103.0000	84.39
1102.0000	84.546
1101.0000	84.5531
1100.0000	84.4242
1099.0000	84.1281
1098.0000	83.6999
1097.0000	83.1134
1096.0000	82.46
1095.0000	81.6587
1094.0000	80.8128
1093.0000	79.8997
1092.0000	78.9593
1091.0000	77.9938
1090.0000	77.0504
1089.0000	76.1117
1088.0000	75.2336
1087.0000	74.4246
1086.0000	73.6909
1085.0000	73.0372
1084.0000	72.4722
1083.0000	72.004
1082.0000	71.6936
1081.0000	71.4484
1080.0000	71.3106
1079.0000	71.2987
1078.0000	71.4277
1077.0000	71.7002
1076.0000	72.0704
1075.0000	72.5401
1074.0000	73.1353
1073.0000	73.8307
1072.0000	74.6096
1071.0000	75.4226
1070.0000	76.3346
1069.0000	77.2933
1068.0000	78.2726
1067.0000	79.2765
1066.0000	80.2627
1065.0000	81.1424
1064.0000	82.0026
1063.0000	82.7697
1062.0000	83.3973
1061.0000	83.8652
1060.0000	84.1954
1059.0000	84.3717
1058.0000	84.3711
1057.0000	84.1519
1056.0000	83.8076
1055.0000	83.2704
1054.0000	82.6121
1053.0000	81.8043
1052.0000	80.9259
1051.0000	79.9734
1050.0000	78.9567
1049.0000	77.9495
1048.0000	76.9228
1047.0000	75.9335
1046.0000	74.9875
1045.0000	74.0942
1044.0000	73.337
1043.0000	72.6628
1042.0000	72.0918
1041.0000	71.6658
1040.0000	71.3782
1039.0000	71.2253
1038.0000	71.2343
1037.0000	71.378
1036.0000	71.6715
1035.0000	72.1132
1034.0000	72.677
1033.0000	73.3657
1032.0000	74.1702
1031.0000	75.025
1030.0000	75.9843
1029.0000	77.0011
1028.0000	78.0681
1027.0000	79.1302
1026.0000	80.1967
1025.0000	81.1727
1024.0000	82.0808
1023.0000	82.8485
1022.0000	83.4767
1021.0000	83.9216
1020.0000	84.1645
1019.0000	84.2236
1018.0000	84.1001
1017.0000	83.7752
1016.0000	83.2493
1015.0000	82.5924
1014.0000	81.7513
1013.0000	80.8198
1012.0000	79.7671
1011.0000	78.6638
1010.0000	77.5603
1009.0000	76.4517
1008.0000	75.4307
1007.0000	74.4359
1006.0000	73.5863
1005.0000	72.8314
1004.0000	72.2012
1003.0000	71.7273
1002.0000	71.3429
1001.0000	71.2277
1000.0000	71.1989
999.0000	71.3466
998.0000	71.6958
997.0000	72.2195
996.0000	72.9084
995.0000	73.6982
994.0000	74.6686
993.0000	75.7203
992.0000	76.7975
991.0000	77.9278
990.0000	79.0478
989.0000	80.1427
988.0000	81.1457
987.0000	82.0448
986.0000	82.8295
985.0000	83.4384
984.0000	83.8347
983.0000	84.0489
982.0000	84.024
981.0000	83.75
980.0000	83.2972
979.0000	82.6204
978.0000	81.8383
977.0000	80.853
976.0000	79.7758
975.0000	78.6726
974.0000	77.503
973.0000	76.3767
972.0000	75.2415
971.0000	74.2433
970.0000	73.3458
969.0000	72.6087
968.0000	72.003
967.0000	71.6396
966.0000	71.4061
965.0000	71.4167
964.0000	71.6273
963.0000	72.0547
962.0000	72.6042
961.0000	73.3519
960.0000	74.2341
959.0000	75.2415
958.0000	76.3495
957.0000	77.4772
956.0000	78.6845
955.0000	79.8421
954.0000	80.9524
953.0000	81.9102
952.0000	82.7097
951.0000	83.3603
950.0000	83.7244
949.0000	83.9465
948.0000	83.8546
947.0000	83.522
946.0000	82.9362
945.0000	82.1363
944.0000	81.1983
943.0000	80.091
942.0000	78.9087
941.0000	77.677
940.0000	76.4793
939.0000	75.3492
938.0000	74.2598
937.0000	73.3491
936.0000	72.5416
935.0000	71.9643
934.0000	71.5898
933.0000	71.3788
932.0000	71.4629
931.0000	71.7214
930.0000	72.2826
929.0000	72.9373
928.0000	73.8341
927.0000	74.836
926.0000	76.0112
925.0000	77.175
924.0000	78.4505
923.0000	79.693
922.0000	80.794
921.0000	81.8577
920.0000	82.6913
919.0000	83.324
918.0000	83.6935
917.0000	83.8617
916.0000	83.6279
915.0000	83.2208
914.0000	82.5335
913.0000	81.668
912.0000	80.5328
911.0000	79.2478
910.0000	77.9923
909.0000	76.7303
908.0000	75.4931
907.0000	74.3927
906.0000	73.4094
905.0000	72.6143
904.0000	72.0671
903.0000	71.713
902.0000	71.6105
901.0000	71.7678
900.0000	72.1668
899.0000	72.6298
898.0000	73.3528
897.0000	73.8996
896.0000	74.8495
895.0000	75.9758
894.0000	77.0665
893.0000	78.3596
892.0000	79.5502
891.0000	80.6341
890.0000	81.8925
889.0000	82.777
888.0000	83.5456
887.0000	83.8035
886.0000	83.721
885.0000	83.4936
884.0000	82.8592
883.0000	82.1127
882.0000	80.9286
881.0000	79.7711
880.0000	78.5345
879.0000	77.1867
878.0000	75.9506
877.0000	74.6718
876.0000	73.6439
875.0000	72.7572
874.0000	72.0765
873.0000	71.8439
872.0000	71.7092
871.0000	71.9237
870.0000	72.3828
869.0000	73.1558
868.0000	74.1469
867.0000	75.2591
866.0000	76.5148
865.0000	77.9699
864.0000	79.3843
863.0000	80.7964
862.0000	81.9986
861.0000	82.997
860.0000	83.6727
859.0000	83.9543
858.0000	83.9259
857.0000	83.3912
856.0000	82.5636
855.0000	81.4597
854.0000	80.1097
853.0000	78.6806
852.0000	77.1989
851.0000	75.7736
850.0000	74.4771
849.0000	73.3629
848.0000	72.5174
847.0000	71.9438
846.0000	71.6609
845.0000	71.6841
844.0000	72.0683
843.0000	72.759
842.0000	73.7317
841.0000	74.9185
840.0000	76.3077
839.0000	77.8327
838.0000	79.3408
837.0000	80.7844
836.0000	82.0199
835.0000	83.0154
834.0000	83.6227
833.0000	83.8793
832.0000	83.6832
831.0000	83.0856
830.0000	82.1203
829.0000	80.8719
828.0000	79.4382
827.0000	77.8942
826.0000	76.3824
825.0000	74.9525
824.0000	73.7403
823.0000	72.7855
822.0000	72.1662
821.0000	71.8758
820.0000	71.9255
819.0000	72.3315
818.0000	73.0589
817.0000	74.113
816.0000	75.4135
815.0000	76.866
814.0000	78.442
813.0000	79.9707
812.0000	81.3895
811.0000	82.559
810.0000	83.3464
809.0000	83.7157
808.0000	83.6208
807.0000	83.0631
806.0000	82.1003
805.0000	80.8329
804.0000	79.3466
803.0000	77.77
802.0000	76.2086
801.0000	74.7854
800.0000	73.5859
799.0000	72.7106
798.0000	72.189
797.0000	72.0411
796.0000	72.3403
795.0000	73.0332
794.0000	74.0854
793.0000	75.4279
792.0000	76.9729
791.0000	78.6258
790.0000	80.2255
789.0000	81.6451
788.0000	82.775
787.0000	83.4765
786.0000	83.6971
785.0000	83.3766
784.0000	82.6149
783.0000	81.4473
782.0000	79.9774
781.0000	78.3163
780.0000	76.678
779.0000	75.1469
778.0000	73.853
777.0000	72.8687
776.0000	72.3041
775.0000	72.1779
774.0000	72.4816
773.0000	73.1973
772.0000	74.2942
771.0000	75.7079
770.0000	77.3192
769.0000	78.9954
768.0000	80.5875
767.0000	81.9731
766.0000	82.9821
765.0000	83.5004
764.0000	83.4625
763.0000	82.8842
762.0000	81.8211
761.0000	80.3872
760.0000	78.7402
759.0000	77.0178
758.0000	75.4153
757.0000	74.0514
756.0000	73.0355
755.0000	72.4666
754.0000	72.397
753.0000	72.7961
752.0000	73.6536
751.0000	74.9172
750.0000	76.4922
749.0000	78.227
748.0000	79.9356
747.0000	81.4537
746.0000	82.6092
745.0000	83.2587
744.0000	83.2941
743.0000	82.7285
742.0000	81.6333
741.0000	80.1329
740.0000	78.4377
739.0000	76.6592
738.0000	75.0609
737.0000	73.7474
736.0000	72.8566
735.0000	72.4547
734.0000	72.599
733.0000	73.2611
732.0000	74.4005
731.0000	75.9074
730.0000	77.6509
729.0000	79.4225
728.0000	81.0371
727.0000	82.2845
726.0000	83.0151
725.0000	83.1118
724.0000	82.5397
723.0000	81.4136
722.0000	79.8526
721.0000	78.0666
720.0000	76.2503
719.0000	74.6202
718.0000	73.3693
717.0000	72.5971
716.0000	72.3844
715.0000	72.7697
714.0000	73.7163
713.0000	75.1252
712.0000	76.8567
711.0000	78.6992
710.0000	80.436
709.0000	81.8189
708.0000	82.6519
707.0000	82.8138
706.0000	82.2825
705.0000	81.114
704.0000	79.4879
703.0000	77.6411
702.0000	75.8008
701.0000	74.2151
700.0000	73.0733
699.0000	72.4974
698.0000	72.5607
697.0000	73.2558
696.0000	74.5124
695.0000	76.1794
694.0000	78.0453
693.0000	79.8399
692.0000	81.3229
691.0000	82.2478
690.0000	82.4438
689.0000	81.9021
688.0000	80.6878
687.0000	78.9878
686.0000	77.0646
685.0000	75.2248
684.0000	73.7073
683.0000	72.7005
682.0000	72.3402
681.0000	72.6821
680.0000	73.684
679.0000	75.2196
678.0000	77.0661
677.0000	78.9581
676.0000	80.6247
675.0000	81.7703
674.0000	82.1667
673.0000	81.7616
672.0000	80.6067
671.0000	78.9085
670.0000	76.954
669.0000	75.0559
668.0000	73.4857
667.0000	72.5032
666.0000	72.2309
665.0000	72.7098
664.0000	73.8814
663.0000	75.5779
662.0000	77.5155
661.0000	79.3757
660.0000	80.8431
659.0000	81.634
658.0000	81.5843
657.0000	80.6827
656.0000	79.1003
655.0000	77.1644
654.0000	75.1955
653.0000	73.5446
652.0000	72.4769
651.0000	72.1825
650.0000	72.7184
649.0000	73.9783
648.0000	75.7454
647.0000	77.7156
646.0000	79.5202
645.0000	80.7943
644.0000	81.2588
643.0000	80.8023
642.0000	79.534
641.0000	77.6894
640.0000	75.6522
639.0000	73.8073
638.0000	72.5082
637.0000	71.9793
636.0000	72.3303
635.0000	73.4837
634.0000	75.23
633.0000	77.222
632.0000	79.0579
631.0000	80.3466
630.0000	80.7908
629.0000	80.2946
628.0000	78.9532
627.0000	77.0494
626.0000	75.0177
625.0000	73.2586
624.0000	72.1491
623.0000	71.8995
622.0000	72.5578
621.0000	73.9931
620.0000	75.8981
619.0000	77.8661
618.0000	79.4532
617.0000	80.2624
616.0000	80.0917
615.0000	78.9721
614.0000	77.1777
613.0000	75.1293
612.0000	73.2958
611.0000	72.0995
610.0000	71.8072
609.0000	72.4862
608.0000	73.979
607.0000	75.9262
606.0000	77.846
605.0000	79.2582
604.0000	79.78
603.0000	79.273
602.0000	77.8542
601.0000	75.8973
600.0000	73.8877
599.0000	72.3651
598.0000	71.6977
597.0000	72.0472
596.0000	73.3314
595.0000	75.2085
594.0000	77.1669
593.0000	78.6649
592.0000	79.2702
591.0000	78.8341
590.0000	77.4414
589.0000	75.4829
588.0000	73.5292
587.0000	72.1218
586.0000	71.6378
585.0000	72.1966
584.0000	73.6561
583.0000	75.5707
582.0000	77.3876
581.0000	78.5519
580.0000	78.7064
579.0000	77.8102
578.0000	76.1117
577.0000	74.1368
576.0000	72.4801
575.0000	71.6368
574.0000	71.8826
573.0000	73.1291
572.0000	74.9607
571.0000	76.8115
570.0000	78.0842
569.0000	78.3751
568.0000	77.5723
567.0000	75.9335
566.0000	74.0006
565.0000	72.4255
564.0000	71.7238
563.0000	72.1221
562.0000	73.4828
561.0000	75.3241
560.0000	76.9973
559.0000	77.9049
558.0000	77.7428
557.0000	76.5555
556.0000	74.7894
555.0000	73.0639
554.0000	72.0219
553.0000	72.0743
552.0000	73.1609
551.0000	74.8638
550.0000	76.5152
549.0000	77.4728
548.0000	77.4061
547.0000	76.3011
546.0000	74.6174
545.0000	73.0078
544.0000	72.1281
543.0000	72.3606
542.0000	73.5529
541.0000	75.2342
540.0000	76.6886
539.0000	77.3212
538.0000	76.8939
537.0000	75.5662
536.0000	73.9042
535.0000	72.6287
534.0000	72.2876
533.0000	73.0371
532.0000	74.5063
531.0000	76.0336
530.0000	76.9551
529.0000	76.8934
528.0000	75.8696
527.0000	74.3432
526.0000	73.0358
525.0000	72.5926
524.0000	73.1839
523.0000	74.4961
522.0000	75.8973
521.0000	76.7205
520.0000	76.6213
519.0000	75.6103
518.0000	74.2289
517.0000	73.1733
516.0000	72.9978
515.0000	73.7856
514.0000	75.0872
513.0000	76.2136
512.0000	76.6323
511.0000	76.129
510.0000	74.9992
509.0000	73.8693
508.0000	73.374
507.0000	73.7777
506.0000	74.8099
505.0000	75.8724
504.0000	76.376
503.0000	76.0618
502.0000	75.1547
501.0000	74.1918
500.0000	73.7758
499.0000	74.1543
498.0000	75.0465
497.0000	75.9093
496.0000	76.2144
495.0000	75.8158
494.0000	74.984
493.0000	74.2505
492.0000	74.1143
491.0000	74.6172
490.0000	75.4114
489.0000	75.9558
488.0000	75.9454
487.0000	75.4108
486.0000	74.7213
485.0000	74.3817
484.0000	74.598
483.0000	75.1823
482.0000	75.7014
481.0000	75.8181
480.0000	75.5035
479.0000	74.9856
478.0000	74.6783
477.0000	74.7881
476.0000	75.1923
475.0000	75.5562
474.0000	75.6212
473.0000	75.4145
472.0000	75.1281
471.0000	74.9737
470.0000	75.048
469.0000	75.2373
468.0000	75.3839
467.0000	75.3789
466.0000	75.2757
465.0000	75.1871
464.0000	75.1436
463.0000	75.1147
462.0000	75.0883
461.0000	75.0611
460.0000	75.0948
459.0000	75.1725
458.0000	75.2008
457.0000	75.0648
456.0000	74.7875
455.0000	74.6053
454.0000	74.7162
453.0000	75.0502
452.0000	75.2185
451.0000	74.9376
450.0000	74.4091
449.0000	74.1202
448.0000	74.3425
447.0000	74.8357
446.0000	74.955
445.0000	74.4385
444.0000	73.7283
443.0000	73.5139
442.0000	74.0048
441.0000	74.5832
440.0000	74.4579
439.0000	73.6196
438.0000	72.9443
437.0000	73.1405
436.0000	73.9303
435.0000	74.2001
434.0000	73.4004
433.0000	72.356
432.0000	72.2473
431.0000	73.1124
430.0000	73.6993
429.0000	72.987
428.0000	71.7262
427.0000	71.4278
426.0000	72.3443
425.0000	73.0173
424.0000	72.2194
423.0000	70.8426
422.0000	70.6248
421.0000	71.709
420.0000	72.2378
419.0000	71.1321
418.0000	69.7985
417.0000	70.0608
416.0000	71.2482
415.0000	71.1725
414.0000	69.6062
413.0000	68.8454
412.0000	69.8219
411.0000	70.5103
410.0000	69.314
409.0000	67.9752
408.0000	68.4583
407.0000	69.4118
406.0000	68.5928
405.0000	67.1306
404.0000	67.3381
403.0000	68.2283
402.0000	67.5291
401.0000	66.2631
400.0000	66.4526
399.0000	67.0699
398.0000	66.1721
397.0000	65.1164
396.0000	65.4193
395.0000	65.4658
394.0000	64.4289
393.0000	63.9107
392.0000	64.0364
391.0000	63.5691
390.0000	62.8723
389.0000	62.5704
388.0000	62.2574
387.0000	61.7902
386.0000	61.2124
385.0000	60.71
384.0000	60.5353
383.0000	59.7618
382.0000	59.0431
381.0000	58.9982
380.0000	57.9269
379.0000	57.2892
378.0000	56.9981
377.0000	55.599
376.0000	55.072
375.0000	53.7887
374.0000	52.1607
373.0000	50.2795
372.0000	47.1987
371.0000	43.3165
370.0000	37.8276
369.0000	31.195
368.0000	24.0277
367.0000	17.2502
366.0000	11.2894
365.0000	6.53194
364.0000	3.08494
363.0000	1.06386
362.0000	0.231627
361.0000	0.0419845
360.0000	0.0207931
359.0000	0.016744
358.0000	0.0137266
357.0000	0.0122211
356.0000	0.010902
355.0000	0.00958392
354.0000	0.00817093
353.0000	0.0077884
352.0000	0.00769446
351.0000	0.00713193
350.0000	0.00637331
349.0000	0.00637784
348.0000	0.00656107
347.0000	0.00637296
346.0000	0.00599274
345.0000	0.00533328
344.0000	0.00542586
343.0000	0.00542312
342.0000	0.00579703
341.0000	0.00570159
340.0000	0.029486
339.0000	0.0288278
338.0000	0.0287167
337.0000	0.0282852
336.0000	0.027418
335.0000	0.026984
334.0000	0.0261237
333.0000	0.025164
332.0000	0.0242946
331.0000	0.0238581
330.0000	0.0228797
329.0000	0.0224335
328.0000	0.0220155
327.0000	0.0222129
326.0000	0.0225209
325.0000	0.0218697
324.0000	0.0218483
323.0000	0.0212176
322.0000	0.0200462
321.0000	0.0192843
320.0000	0.0179143
319.0000	0.0173762
318.0000	0.0164306
317.0000	0.0148463
316.0000	0.0152552
315.0000	0.0154607
314.0000	0.0146135
313.0000	0.0143865
312.0000	0.0143784
311.0000	0.0147885
310.0000	0.0152111
309.0000	0.0141516
308.0000	0.0134032
307.0000	0.013821
306.0000	0.0141265
305.0000	0.01349
304.0000	0.0127505
303.0000	0.0129441
302.0000	0.013782
301.0000	0.0131449
300.0000	0.0119901
