TITLE	n-GaN
DATA TYPE	ULTRAVIOLET SPECTRUM
ORIGIN	JASCO
OWNER	
DATE	19/11/21
TIME	17:01:56
SPECTROMETER/DATA SYSTEM	
RESOLUTION	
DELTAX	-1
XUNITS	NANOMETERS
YUNITS	TRANSMITTANCE
FIRSTX	 2500.0000
LASTX	  300.0000
NPOINTS	    2201
FIRSTY	    83.45750
MAXY	    86.04787
MINY	     0.00617
XYDATA
2500.0000	83.4575
2499.0000	83.6671
2498.0000	84.0225
2497.0000	84.0876
2496.0000	84.0352
2495.0000	84.0574
2494.0000	84.325
2493.0000	84.4031
2492.0000	84.3339
2491.0000	84.4174
2490.0000	84.6021
2489.0000	84.7448
2488.0000	84.7031
2487.0000	84.7672
2486.0000	84.9242
2485.0000	84.9815
2484.0000	85.0374
2483.0000	85.0337
2482.0000	85.1936
2481.0000	85.1522
2480.0000	85.224
2479.0000	85.1757
2478.0000	85.2154
2477.0000	85.1622
2476.0000	85.0642
2475.0000	85.0718
2474.0000	85.1285
2473.0000	85.0469
2472.0000	84.9663
2471.0000	85.0347
2470.0000	85.0304
2469.0000	85.1236
2468.0000	84.9739
2467.0000	84.9574
2466.0000	85.0268
2465.0000	84.9267
2464.0000	84.8412
2463.0000	84.7185
2462.0000	84.7693
2461.0000	84.5587
2460.0000	84.4164
2459.0000	84.3923
2458.0000	84.3262
2457.0000	84.1944
2456.0000	83.9693
2455.0000	83.9568
2454.0000	83.9085
2453.0000	83.7221
2452.0000	83.6211
2451.0000	83.5692
2450.0000	83.4755
2449.0000	83.3016
2448.0000	83.1744
2447.0000	83.09
2446.0000	82.9593
2445.0000	82.8382
2444.0000	82.693
2443.0000	82.6772
2442.0000	82.5031
2441.0000	82.1997
2440.0000	82.0362
2439.0000	81.9156
2438.0000	81.5975
2437.0000	81.3689
2436.0000	81.2227
2435.0000	81.1946
2434.0000	80.9664
2433.0000	80.7742
2432.0000	80.7732
2431.0000	80.6388
2430.0000	80.3779
2429.0000	80.1541
2428.0000	80.0315
2427.0000	79.9085
2426.0000	79.6755
2425.0000	79.4677
2424.0000	79.3037
2423.0000	79.0654
2422.0000	78.8382
2421.0000	78.6882
2420.0000	78.5546
2419.0000	78.3119
2418.0000	78.0817
2417.0000	77.9952
2416.0000	77.8891
2415.0000	77.6782
2414.0000	77.4074
2413.0000	77.3118
2412.0000	77.142
2411.0000	76.9112
2410.0000	76.6999
2409.0000	76.5733
2408.0000	76.4417
2407.0000	76.2394
2406.0000	76.1323
2405.0000	76.0199
2404.0000	75.9053
2403.0000	75.6915
2402.0000	75.5405
2401.0000	75.4819
2400.0000	75.2941
2399.0000	75.0805
2398.0000	74.9844
2397.0000	74.9042
2396.0000	74.7152
2395.0000	74.4493
2394.0000	74.3944
2393.0000	74.322
2392.0000	74.0821
2391.0000	73.9693
2390.0000	73.869
2389.0000	73.8035
2388.0000	73.7115
2387.0000	73.582
2386.0000	73.5689
2385.0000	73.4284
2384.0000	73.3201
2383.0000	73.3232
2382.0000	73.2477
2381.0000	73.2073
2380.0000	73.1297
2379.0000	73.0887
2378.0000	72.9949
2377.0000	72.9244
2376.0000	72.7928
2375.0000	72.7847
2374.0000	72.7394
2373.0000	72.6495
2372.0000	72.6691
2371.0000	72.6918
2370.0000	72.7237
2369.0000	72.7291
2368.0000	72.6985
2367.0000	72.6412
2366.0000	72.6185
2365.0000	72.6007
2364.0000	72.5919
2363.0000	72.5381
2362.0000	72.5315
2361.0000	72.6036
2360.0000	72.6427
2359.0000	72.6422
2358.0000	72.6802
2357.0000	72.7435
2356.0000	72.8195
2355.0000	72.8254
2354.0000	72.9069
2353.0000	72.9934
2352.0000	73.0262
2351.0000	73.0551
2350.0000	73.0639
2349.0000	73.1407
2348.0000	73.1594
2347.0000	73.2643
2346.0000	73.3191
2345.0000	73.4395
2344.0000	73.5165
2343.0000	73.6881
2342.0000	73.8556
2341.0000	73.9032
2340.0000	74.0547
2339.0000	74.2199
2338.0000	74.3753
2337.0000	74.4561
2336.0000	74.5131
2335.0000	74.6098
2334.0000	74.7479
2333.0000	74.822
2332.0000	74.9518
2331.0000	75.1627
2330.0000	75.2759
2329.0000	75.4691
2328.0000	75.6371
2327.0000	75.8399
2326.0000	76.0673
2325.0000	76.2437
2324.0000	76.4076
2323.0000	76.6481
2322.0000	76.798
2321.0000	76.9483
2320.0000	77.1678
2319.0000	77.3783
2318.0000	77.49
2317.0000	77.671
2316.0000	77.8943
2315.0000	78.0709
2314.0000	78.2895
2313.0000	78.5143
2312.0000	78.7612
2311.0000	79.0024
2310.0000	79.2097
2309.0000	79.4151
2308.0000	79.6231
2307.0000	79.8013
2306.0000	79.9102
2305.0000	80.0604
2304.0000	80.2343
2303.0000	80.4992
2302.0000	80.6483
2301.0000	80.8127
2300.0000	81.0147
2299.0000	81.2379
2298.0000	81.36
2297.0000	81.5477
2296.0000	81.7264
2295.0000	82.0044
2294.0000	82.175
2293.0000	82.3807
2292.0000	82.5516
2291.0000	82.7362
2290.0000	82.9575
2289.0000	83.1336
2288.0000	83.2794
2287.0000	83.4287
2286.0000	83.6026
2285.0000	83.6936
2284.0000	83.8308
2283.0000	83.9982
2282.0000	84.1391
2281.0000	84.3364
2280.0000	84.513
2279.0000	84.5673
2278.0000	84.7546
2277.0000	84.8758
2276.0000	85.0248
2275.0000	85.026
2274.0000	85.1328
2273.0000	85.2068
2272.0000	85.3139
2271.0000	85.3403
2270.0000	85.3564
2269.0000	85.4424
2268.0000	85.4417
2267.0000	85.4688
2266.0000	85.4138
2265.0000	85.4939
2264.0000	85.5179
2263.0000	85.5131
2262.0000	85.4997
2261.0000	85.5642
2260.0000	85.5094
2259.0000	85.4893
2258.0000	85.437
2257.0000	85.356
2256.0000	85.4179
2255.0000	85.3236
2254.0000	85.288
2253.0000	85.1796
2252.0000	85.1724
2251.0000	85.1366
2250.0000	85.0304
2249.0000	84.9056
2248.0000	84.7696
2247.0000	84.6391
2246.0000	84.5283
2245.0000	84.4157
2244.0000	84.2743
2243.0000	84.1494
2242.0000	84.0228
2241.0000	83.8992
2240.0000	83.7562
2239.0000	83.5686
2238.0000	83.4538
2237.0000	83.2045
2236.0000	83.077
2235.0000	82.9302
2234.0000	82.6965
2233.0000	82.5056
2232.0000	82.3224
2231.0000	82.1498
2230.0000	81.8821
2229.0000	81.6825
2228.0000	81.4852
2227.0000	81.2791
2226.0000	81.1052
2225.0000	80.867
2224.0000	80.5893
2223.0000	80.4101
2222.0000	80.1957
2221.0000	79.9585
2220.0000	79.7774
2219.0000	79.5722
2218.0000	79.3397
2217.0000	79.0899
2216.0000	78.8303
2215.0000	78.6295
2214.0000	78.3571
2213.0000	78.1168
2212.0000	77.8681
2211.0000	77.6857
2210.0000	77.5442
2209.0000	77.2721
2208.0000	76.9978
2207.0000	76.8357
2206.0000	76.6865
2205.0000	76.4207
2204.0000	76.2074
2203.0000	75.951
2202.0000	75.7877
2201.0000	75.5902
2200.0000	75.3813
2199.0000	75.2026
2198.0000	75.0124
2197.0000	74.8385
2196.0000	74.683
2195.0000	74.4117
2194.0000	74.246
2193.0000	74.1035
2192.0000	73.9666
2191.0000	73.8423
2190.0000	73.7538
2189.0000	73.6412
2188.0000	73.4811
2187.0000	73.3798
2186.0000	73.2161
2185.0000	73.1131
2184.0000	72.9737
2183.0000	72.8704
2182.0000	72.7499
2181.0000	72.6503
2180.0000	72.5773
2179.0000	72.4975
2178.0000	72.4181
2177.0000	72.4208
2176.0000	72.3235
2175.0000	72.3197
2174.0000	72.2251
2173.0000	72.1953
2172.0000	72.1271
2171.0000	72.0781
2170.0000	72.1121
2169.0000	72.0637
2168.0000	71.9979
2167.0000	71.9873
2166.0000	71.9945
2165.0000	72.0226
2164.0000	72.0261
2163.0000	72.0309
2162.0000	72.0756
2161.0000	72.1321
2160.0000	72.2154
2159.0000	72.2991
2158.0000	72.322
2157.0000	72.3467
2156.0000	72.4502
2155.0000	72.5886
2154.0000	72.6083
2153.0000	72.6849
2152.0000	72.7868
2151.0000	72.955
2150.0000	73.062
2149.0000	73.1453
2148.0000	73.3044
2147.0000	73.4208
2146.0000	73.599
2145.0000	73.6891
2144.0000	73.9237
2143.0000	74.0635
2142.0000	74.2517
2141.0000	74.3828
2140.0000	74.5118
2139.0000	74.7259
2138.0000	74.8603
2137.0000	75.0174
2136.0000	75.2156
2135.0000	75.4143
2134.0000	75.6335
2133.0000	75.8269
2132.0000	76.0333
2131.0000	76.2542
2130.0000	76.4824
2129.0000	76.7026
2128.0000	76.9931
2127.0000	77.2351
2126.0000	77.4833
2125.0000	77.7288
2124.0000	77.931
2123.0000	78.1381
2122.0000	78.3763
2121.0000	78.7044
2120.0000	78.936
2119.0000	79.2311
2118.0000	79.5342
2117.0000	79.7986
2116.0000	80.0858
2115.0000	80.2649
2114.0000	80.4466
2113.0000	80.6629
2112.0000	80.9054
2111.0000	81.1525
2110.0000	81.395
2109.0000	81.6661
2108.0000	81.9397
2107.0000	82.2308
2106.0000	82.4656
2105.0000	82.6858
2104.0000	82.8878
2103.0000	83.1376
2102.0000	83.33
2101.0000	83.5726
2100.0000	83.7606
2099.0000	83.9276
2098.0000	84.1569
2097.0000	84.335
2096.0000	84.5102
2095.0000	84.7155
2094.0000	84.8528
2093.0000	85.0134
2092.0000	85.177
2091.0000	85.3
2090.0000	85.4697
2089.0000	85.4938
2088.0000	85.5873
2087.0000	85.7289
2086.0000	85.7893
2085.0000	85.797
2084.0000	85.9035
2083.0000	85.9439
2082.0000	85.9606
2081.0000	85.9666
2080.0000	85.9627
2079.0000	86.0352
2078.0000	86.0479
2077.0000	85.9492
2076.0000	85.9903
2075.0000	85.9481
2074.0000	85.9159
2073.0000	85.8963
2072.0000	85.7531
2071.0000	85.7048
2070.0000	85.611
2069.0000	85.4927
2068.0000	85.3188
2067.0000	85.2206
2066.0000	85.0123
2065.0000	84.9499
2064.0000	84.8163
2063.0000	84.6425
2062.0000	84.4749
2061.0000	84.3326
2060.0000	84.1249
2059.0000	84.0135
2058.0000	83.7242
2057.0000	83.5382
2056.0000	83.3039
2055.0000	83.0529
2054.0000	82.8534
2053.0000	82.6171
2052.0000	82.3467
2051.0000	82.1082
2050.0000	81.8857
2049.0000	81.6888
2048.0000	81.4757
2047.0000	81.1889
2046.0000	80.93
2045.0000	80.7426
2044.0000	80.3926
2043.0000	80.1433
2042.0000	79.8289
2041.0000	79.4833
2040.0000	79.2689
2039.0000	78.9688
2038.0000	78.6906
2037.0000	78.484
2036.0000	78.1605
2035.0000	77.9441
2034.0000	77.7191
2033.0000	77.3351
2032.0000	77.2284
2031.0000	76.925
2030.0000	76.6348
2029.0000	76.4864
2028.0000	76.1984
2027.0000	76.0846
2026.0000	75.8004
2025.0000	75.5289
2024.0000	75.3821
2023.0000	75.0979
2022.0000	74.8659
2021.0000	74.6538
2020.0000	74.4248
2019.0000	74.2629
2018.0000	74.118
2017.0000	73.8539
2016.0000	73.7758
2015.0000	73.5419
2014.0000	73.397
2013.0000	73.2675
2012.0000	72.993
2011.0000	72.9621
2010.0000	72.804
2009.0000	72.618
2008.0000	72.6125
2007.0000	72.4341
2006.0000	72.4556
2005.0000	72.4273
2004.0000	72.3197
2003.0000	72.369
2002.0000	72.375
2001.0000	72.3629
2000.0000	72.424
1999.0000	72.3471
1998.0000	72.3622
1997.0000	72.4192
1996.0000	72.3554
1995.0000	72.4604
1994.0000	72.3271
1993.0000	72.4223
1992.0000	72.4931
1991.0000	72.4318
1990.0000	72.6306
1989.0000	72.6004
1988.0000	72.7382
1987.0000	72.882
1986.0000	72.9006
1985.0000	73.0959
1984.0000	73.2122
1983.0000	73.285
1982.0000	73.5092
1981.0000	73.5889
1980.0000	73.8476
1979.0000	74.0521
1978.0000	74.0303
1977.0000	74.3106
1976.0000	74.4423
1975.0000	74.6727
1974.0000	74.8845
1973.0000	75.0084
1972.0000	75.3691
1971.0000	75.5268
1970.0000	75.7908
1969.0000	76.1566
1968.0000	76.2655
1967.0000	76.7045
1966.0000	76.8707
1965.0000	77.1285
1964.0000	77.4777
1963.0000	77.5862
1962.0000	77.9304
1961.0000	78.0973
1960.0000	78.416
1959.0000	78.7588
1958.0000	78.9627
1957.0000	79.3654
1956.0000	79.5905
1955.0000	79.9272
1954.0000	80.2129
1953.0000	80.4239
1952.0000	80.8123
1951.0000	81.0565
1950.0000	81.3612
1949.0000	81.6915
1948.0000	81.9483
1947.0000	82.3562
1946.0000	82.4692
1945.0000	82.7555
1944.0000	83.0237
1943.0000	83.1614
1942.0000	83.4034
1941.0000	83.5019
1940.0000	83.7067
1939.0000	83.9226
1938.0000	83.9858
1937.0000	84.1861
1936.0000	84.2831
1935.0000	84.4827
1934.0000	84.6436
1933.0000	84.7722
1932.0000	84.9477
1931.0000	84.9945
1930.0000	85.2043
1929.0000	85.2355
1928.0000	85.2776
1927.0000	85.3266
1926.0000	85.3985
1925.0000	85.5799
1924.0000	85.5924
1923.0000	85.7503
1922.0000	85.7979
1921.0000	85.8225
1920.0000	85.8245
1919.0000	85.7309
1918.0000	85.7565
1917.0000	85.6701
1916.0000	85.6054
1915.0000	85.5968
1914.0000	85.4771
1913.0000	85.4026
1912.0000	85.1021
1911.0000	84.7873
1910.0000	84.4688
1909.0000	84.1189
1908.0000	83.6772
1907.0000	83.1414
1906.0000	82.7348
1905.0000	82.3817
1904.0000	82.2247
1903.0000	81.9227
1902.0000	81.8911
1901.0000	81.9025
1900.0000	81.6285
1899.0000	81.586
1898.0000	81.3822
1897.0000	81.2095
1896.0000	80.9178
1895.0000	80.6473
1894.0000	80.5157
1893.0000	80.2405
1892.0000	80.0416
1891.0000	79.6247
1890.0000	79.2603
1889.0000	78.7714
1888.0000	78.223
1887.0000	77.8088
1886.0000	77.3211
1885.0000	77.0391
1884.0000	76.7508
1883.0000	76.5525
1882.0000	76.2597
1881.0000	75.9679
1880.0000	75.7764
1879.0000	75.3635
1878.0000	75.2131
1877.0000	74.9834
1876.0000	74.9345
1875.0000	74.9036
1874.0000	74.7866
1873.0000	74.6434
1872.0000	74.2006
1871.0000	73.9285
1870.0000	73.5294
1869.0000	73.267
1868.0000	73.08
1867.0000	73.0375
1866.0000	73.0413
1865.0000	73.136
1864.0000	73.2334
1863.0000	73.1841
1862.0000	73.1983
1861.0000	72.9342
1860.0000	72.7255
1859.0000	72.4082
1858.0000	72.1864
1857.0000	72.0538
1856.0000	71.9678
1855.0000	72.1023
1854.0000	72.2397
1853.0000	72.5614
1852.0000	72.6595
1851.0000	72.8151
1850.0000	72.8904
1849.0000	72.9086
1848.0000	73.0713
1847.0000	73.1517
1846.0000	73.4028
1845.0000	73.59
1844.0000	73.9549
1843.0000	74.2845
1842.0000	74.5782
1841.0000	74.7776
1840.0000	74.864
1839.0000	74.9719
1838.0000	74.9147
1837.0000	74.8813
1836.0000	74.9503
1835.0000	75.1268
1834.0000	75.4055
1833.0000	75.7718
1832.0000	76.0473
1831.0000	76.3702
1830.0000	76.7162
1829.0000	77.0753
1828.0000	77.3555
1827.0000	77.5908
1826.0000	77.8536
1825.0000	78.1366
1824.0000	78.4743
1823.0000	78.6958
1822.0000	78.9948
1821.0000	79.3114
1820.0000	79.6414
1819.0000	79.971
1818.0000	80.2363
1817.0000	80.5159
1816.0000	80.7681
1815.0000	81.0404
1814.0000	81.3306
1813.0000	81.6385
1812.0000	81.9723
1811.0000	82.279
1810.0000	82.54
1809.0000	82.8657
1808.0000	83.1645
1807.0000	83.4407
1806.0000	83.6819
1805.0000	83.9405
1804.0000	84.2011
1803.0000	84.468
1802.0000	84.6593
1801.0000	84.897
1800.0000	85.0941
1799.0000	85.2446
1798.0000	85.4144
1797.0000	85.5329
1796.0000	85.6263
1795.0000	85.6912
1794.0000	85.7636
1793.0000	85.8361
1792.0000	85.8504
1791.0000	85.8719
1790.0000	85.8476
1789.0000	85.8363
1788.0000	85.753
1787.0000	85.6875
1786.0000	85.6048
1785.0000	85.5312
1784.0000	85.391
1783.0000	85.2365
1782.0000	85.051
1781.0000	84.8945
1780.0000	84.6525
1779.0000	84.4111
1778.0000	84.172
1777.0000	83.965
1776.0000	83.7161
1775.0000	83.4273
1774.0000	83.1392
1773.0000	82.8401
1772.0000	82.5111
1771.0000	82.165
1770.0000	81.802
1769.0000	81.4848
1768.0000	81.1181
1767.0000	80.7474
1766.0000	80.3766
1765.0000	79.9952
1764.0000	79.6103
1763.0000	79.2633
1762.0000	78.8886
1761.0000	78.6024
1760.0000	78.2113
1759.0000	77.885
1758.0000	77.5415
1757.0000	77.2161
1756.0000	76.8542
1755.0000	76.5212
1754.0000	76.1743
1753.0000	75.8778
1752.0000	75.56
1751.0000	75.3048
1750.0000	74.9857
1749.0000	74.7206
1748.0000	74.4218
1747.0000	74.1559
1746.0000	73.9004
1745.0000	73.6746
1744.0000	73.4372
1743.0000	73.2462
1742.0000	73.0155
1741.0000	72.8277
1740.0000	72.6465
1739.0000	72.5192
1738.0000	72.3543
1737.0000	72.243
1736.0000	72.1756
1735.0000	72.0955
1734.0000	72.0186
1733.0000	71.9776
1732.0000	71.8831
1731.0000	71.9102
1730.0000	71.8727
1729.0000	71.8969
1728.0000	71.8992
1727.0000	71.9542
1726.0000	72.0199
1725.0000	72.1198
1724.0000	72.2051
1723.0000	72.3384
1722.0000	72.4682
1721.0000	72.6426
1720.0000	72.798
1719.0000	72.9564
1718.0000	73.1331
1717.0000	73.3836
1716.0000	73.6254
1715.0000	73.8719
1714.0000	74.1379
1713.0000	74.4095
1712.0000	74.7206
1711.0000	74.9874
1710.0000	75.3135
1709.0000	75.603
1708.0000	75.9379
1707.0000	76.2952
1706.0000	76.6328
1705.0000	76.9881
1704.0000	77.3252
1703.0000	77.7086
1702.0000	78.1197
1701.0000	78.4577
1700.0000	78.8619
1699.0000	79.2287
1698.0000	79.6414
1697.0000	80.083
1696.0000	80.5158
1695.0000	80.8641
1694.0000	81.2726
1693.0000	81.7056
1692.0000	82.0321
1691.0000	82.4143
1690.0000	82.7326
1689.0000	83.0718
1688.0000	83.389
1687.0000	83.6789
1686.0000	83.9766
1685.0000	84.2152
1684.0000	84.5203
1683.0000	84.7506
1682.0000	84.9725
1681.0000	85.1613
1680.0000	85.3751
1679.0000	85.5283
1678.0000	85.6182
1677.0000	85.6954
1676.0000	85.8084
1675.0000	85.8542
1674.0000	85.8804
1673.0000	85.8653
1672.0000	85.8561
1671.0000	85.7912
1670.0000	85.7185
1669.0000	85.5969
1668.0000	85.4417
1667.0000	85.2963
1666.0000	85.0981
1665.0000	84.8766
1664.0000	84.6548
1663.0000	84.4207
1662.0000	84.1605
1661.0000	83.8349
1660.0000	83.5186
1659.0000	83.2126
1658.0000	82.817
1657.0000	82.4609
1656.0000	82.105
1655.0000	81.7352
1654.0000	81.3585
1653.0000	80.9655
1652.0000	80.6135
1651.0000	80.1956
1650.0000	79.7382
1649.0000	79.3303
1648.0000	78.9461
1647.0000	78.5305
1646.0000	78.1426
1645.0000	77.7248
1644.0000	77.347
1643.0000	76.9959
1642.0000	76.6609
1641.0000	76.2319
1640.0000	75.8771
1639.0000	75.5141
1638.0000	75.1773
1637.0000	74.8446
1636.0000	74.5496
1635.0000	74.2995
1634.0000	74.0129
1633.0000	73.7969
1632.0000	73.5846
1631.0000	73.3848
1630.0000	73.1692
1629.0000	72.9998
1628.0000	72.8283
1627.0000	72.7437
1626.0000	72.6269
1625.0000	72.5502
1624.0000	72.4401
1623.0000	72.389
1622.0000	72.3476
1621.0000	72.319
1620.0000	72.3075
1619.0000	72.3607
1618.0000	72.4262
1617.0000	72.5555
1616.0000	72.5983
1615.0000	72.7062
1614.0000	72.9125
1613.0000	73.0678
1612.0000	73.2233
1611.0000	73.4678
1610.0000	73.6828
1609.0000	74.0195
1608.0000	74.2652
1607.0000	74.5852
1606.0000	74.9059
1605.0000	75.2363
1604.0000	75.579
1603.0000	75.9519
1602.0000	76.3567
1601.0000	76.858
1600.0000	77.4739
1599.0000	78.2741
1598.0000	78.9898
1597.0000	79.5929
1596.0000	80.0892
1595.0000	80.4365
1594.0000	80.6541
1593.0000	80.7905
1592.0000	80.8691
1591.0000	80.9925
1590.0000	81.2802
1589.0000	81.6556
1588.0000	82.0537
1587.0000	82.4755
1586.0000	82.8406
1585.0000	83.2011
1584.0000	83.5461
1583.0000	83.8693
1582.0000	84.1835
1581.0000	84.4208
1580.0000	84.6606
1579.0000	84.8603
1578.0000	85.0491
1577.0000	85.2171
1576.0000	85.3588
1575.0000	85.4229
1574.0000	85.4993
1573.0000	85.5363
1572.0000	85.5722
1571.0000	85.5555
1570.0000	85.4779
1569.0000	85.4084
1568.0000	85.2763
1567.0000	85.1362
1566.0000	84.9282
1565.0000	84.6833
1564.0000	84.3931
1563.0000	84.0867
1562.0000	83.7397
1561.0000	83.3986
1560.0000	83.0698
1559.0000	82.7008
1558.0000	82.3542
1557.0000	81.9305
1556.0000	81.5009
1555.0000	81.0989
1554.0000	80.6423
1553.0000	80.1497
1552.0000	79.6783
1551.0000	79.2321
1550.0000	78.7939
1549.0000	78.3571
1548.0000	77.9254
1547.0000	77.5131
1546.0000	77.0876
1545.0000	76.6876
1544.0000	76.2788
1543.0000	75.8828
1542.0000	75.5158
1541.0000	75.1177
1540.0000	74.7436
1539.0000	74.4518
1538.0000	74.1484
1537.0000	73.8252
1536.0000	73.5565
1535.0000	73.2864
1534.0000	73.061
1533.0000	72.8695
1532.0000	72.7016
1531.0000	72.5434
1530.0000	72.4301
1529.0000	72.3386
1528.0000	72.3019
1527.0000	72.2929
1526.0000	72.2685
1525.0000	72.2717
1524.0000	72.3452
1523.0000	72.413
1522.0000	72.4959
1521.0000	72.6195
1520.0000	72.7665
1519.0000	72.9649
1518.0000	73.1497
1517.0000	73.3774
1516.0000	73.649
1515.0000	73.9521
1514.0000	74.2482
1513.0000	74.6123
1512.0000	74.9947
1511.0000	75.3616
1510.0000	75.7679
1509.0000	76.1804
1508.0000	76.61
1507.0000	77.0326
1506.0000	77.4532
1505.0000	77.8767
1504.0000	78.3749
1503.0000	78.8614
1502.0000	79.3291
1501.0000	79.8443
1500.0000	80.336
1499.0000	80.8201
1498.0000	81.2998
1497.0000	81.7363
1496.0000	82.1637
1495.0000	82.6088
1494.0000	83.0243
1493.0000	83.3967
1492.0000	83.7777
1491.0000	84.1448
1490.0000	84.4576
1489.0000	84.7371
1488.0000	85.0146
1487.0000	85.2572
1486.0000	85.4366
1485.0000	85.5835
1484.0000	85.6861
1483.0000	85.7515
1482.0000	85.7652
1481.0000	85.7508
1480.0000	85.6822
1479.0000	85.5803
1478.0000	85.4025
1477.0000	85.2166
1476.0000	84.9609
1475.0000	84.6716
1474.0000	84.3576
1473.0000	84.0078
1472.0000	83.6241
1471.0000	83.2546
1470.0000	82.8348
1469.0000	82.3552
1468.0000	81.8818
1467.0000	81.3933
1466.0000	80.8827
1465.0000	80.3706
1464.0000	79.8761
1463.0000	79.3277
1462.0000	78.8163
1461.0000	78.2807
1460.0000	77.7789
1459.0000	77.2603
1458.0000	76.7558
1457.0000	76.2903
1456.0000	75.8661
1455.0000	75.3855
1454.0000	74.9687
1453.0000	74.5665
1452.0000	74.1959
1451.0000	73.8322
1450.0000	73.5461
1449.0000	73.2846
1448.0000	73.0528
1447.0000	72.8466
1446.0000	72.657
1445.0000	72.458
1444.0000	72.2921
1443.0000	72.1807
1442.0000	72.0883
1441.0000	72.0282
1440.0000	72.0174
1439.0000	72.0587
1438.0000	72.1099
1437.0000	72.2216
1436.0000	72.329
1435.0000	72.5269
1434.0000	72.7157
1433.0000	72.9451
1432.0000	73.2383
1431.0000	73.5429
1430.0000	73.9342
1429.0000	74.3335
1428.0000	74.7825
1427.0000	75.2219
1426.0000	75.6607
1425.0000	76.1497
1424.0000	76.6525
1423.0000	77.1222
1422.0000	77.6671
1421.0000	78.1701
1420.0000	78.7212
1419.0000	79.243
1418.0000	79.7633
1417.0000	80.329
1416.0000	80.8746
1415.0000	81.4179
1414.0000	81.9541
1413.0000	82.4784
1412.0000	82.9734
1411.0000	83.4091
1410.0000	83.7589
1409.0000	84.1146
1408.0000	84.4404
1407.0000	84.7144
1406.0000	84.9234
1405.0000	85.1844
1404.0000	85.3913
1403.0000	85.5578
1402.0000	85.6388
1401.0000	85.6075
1400.0000	85.5319
1399.0000	85.3429
1398.0000	85.0738
1397.0000	84.7346
1396.0000	84.3884
1395.0000	84.0011
1394.0000	83.657
1393.0000	83.3122
1392.0000	82.9734
1391.0000	82.6035
1390.0000	82.178
1389.0000	81.7038
1388.0000	81.1602
1387.0000	80.5869
1386.0000	79.9791
1385.0000	79.3872
1384.0000	78.7772
1383.0000	78.1707
1382.0000	77.5757
1381.0000	77.032
1380.0000	76.4711
1379.0000	75.9767
1378.0000	75.457
1377.0000	74.9611
1376.0000	74.5154
1375.0000	74.0305
1374.0000	73.5812
1373.0000	73.1629
1372.0000	72.7965
1371.0000	72.5575
1370.0000	72.4026
1369.0000	72.3309
1368.0000	72.2735
1367.0000	72.2787
1366.0000	72.3268
1365.0000	72.3951
1364.0000	72.5152
1363.0000	72.6459
1362.0000	72.8465
1361.0000	73.1178
1360.0000	73.377
1359.0000	73.6444
1358.0000	73.8906
1357.0000	74.1255
1356.0000	74.3783
1355.0000	74.6737
1354.0000	74.9896
1353.0000	75.3637
1352.0000	75.7909
1351.0000	76.3084
1350.0000	76.8689
1349.0000	77.4354
1348.0000	78.0247
1347.0000	78.6165
1346.0000	79.227
1345.0000	79.8087
1344.0000	80.3613
1343.0000	80.9421
1342.0000	81.5184
1341.0000	82.0874
1340.0000	82.5921
1339.0000	83.0866
1338.0000	83.5512
1337.0000	83.964
1336.0000	84.3362
1335.0000	84.6346
1334.0000	84.8867
1333.0000	85.0833
1332.0000	85.2241
1331.0000	85.3168
1330.0000	85.3278
1329.0000	85.2792
1328.0000	85.176
1327.0000	85.0171
1326.0000	84.7748
1325.0000	84.4935
1324.0000	84.1023
1323.0000	83.7118
1322.0000	83.256
1321.0000	82.7321
1320.0000	82.173
1319.0000	81.6145
1318.0000	81.0235
1317.0000	80.4192
1316.0000	79.7925
1315.0000	79.1393
1314.0000	78.5019
1313.0000	77.8682
1312.0000	77.2472
1311.0000	76.6286
1310.0000	76.0461
1309.0000	75.5114
1308.0000	74.9791
1307.0000	74.4737
1306.0000	74.0256
1305.0000	73.6013
1304.0000	73.2207
1303.0000	72.8886
1302.0000	72.5654
1301.0000	72.354
1300.0000	72.1571
1299.0000	72.0311
1298.0000	71.9448
1297.0000	71.8784
1296.0000	71.8988
1295.0000	71.9777
1294.0000	72.0874
1293.0000	72.2519
1292.0000	72.4843
1291.0000	72.7736
1290.0000	73.1081
1289.0000	73.5043
1288.0000	73.9167
1287.0000	74.3844
1286.0000	74.8815
1285.0000	75.4275
1284.0000	76.019
1283.0000	76.6238
1282.0000	77.2706
1281.0000	77.9066
1280.0000	78.5786
1279.0000	79.2455
1278.0000	79.9077
1277.0000	80.5588
1276.0000	81.2001
1275.0000	81.8265
1274.0000	82.4188
1273.0000	82.9904
1272.0000	83.5023
1271.0000	83.9679
1270.0000	84.3444
1269.0000	84.6577
1268.0000	84.9225
1267.0000	85.1182
1266.0000	85.2415
1265.0000	85.2726
1264.0000	85.236
1263.0000	85.1242
1262.0000	84.9248
1261.0000	84.6639
1260.0000	84.2842
1259.0000	83.8643
1258.0000	83.3794
1257.0000	82.8528
1256.0000	82.2725
1255.0000	81.6648
1254.0000	81.0056
1253.0000	80.3076
1252.0000	79.6205
1251.0000	78.8998
1250.0000	78.1872
1249.0000	77.4778
1248.0000	76.7884
1247.0000	76.1597
1246.0000	75.5315
1245.0000	74.933
1244.0000	74.378
1243.0000	73.865
1242.0000	73.415
1241.0000	73.0146
1240.0000	72.6664
1239.0000	72.3817
1238.0000	72.1573
1237.0000	71.9974
1236.0000	71.8909
1235.0000	71.8586
1234.0000	71.879
1233.0000	71.9844
1232.0000	72.1624
1231.0000	72.4245
1230.0000	72.7028
1229.0000	73.0722
1228.0000	73.4865
1227.0000	73.9397
1226.0000	74.441
1225.0000	74.9894
1224.0000	75.5931
1223.0000	76.2222
1222.0000	76.9132
1221.0000	77.6216
1220.0000	78.35
1219.0000	79.0913
1218.0000	79.8208
1217.0000	80.5636
1216.0000	81.2631
1215.0000	81.9372
1214.0000	82.5589
1213.0000	83.1455
1212.0000	83.6629
1211.0000	84.0977
1210.0000	84.4458
1209.0000	84.709
1208.0000	84.8936
1207.0000	84.9833
1206.0000	84.9716
1205.0000	84.8756
1204.0000	84.7116
1203.0000	84.4423
1202.0000	84.0694
1201.0000	83.6148
1200.0000	83.0726
1199.0000	82.5133
1198.0000	81.849
1197.0000	81.1681
1196.0000	80.4657
1195.0000	79.7199
1194.0000	78.9494
1193.0000	78.1848
1192.0000	77.4321
1191.0000	76.7195
1190.0000	76.0011
1189.0000	75.3204
1188.0000	74.7089
1187.0000	74.1358
1186.0000	73.6063
1185.0000	73.1454
1184.0000	72.7512
1183.0000	72.4464
1182.0000	72.1947
1181.0000	72.0487
1180.0000	71.9455
1179.0000	71.9153
1178.0000	71.9718
1177.0000	72.1257
1176.0000	72.33
1175.0000	72.611
1174.0000	72.9788
1173.0000	73.4354
1172.0000	73.9505
1171.0000	74.5179
1170.0000	75.14
1169.0000	75.8097
1168.0000	76.5155
1167.0000	77.2551
1166.0000	78.0364
1165.0000	78.8203
1164.0000	79.6055
1163.0000	80.4152
1162.0000	81.1605
1161.0000	81.8951
1160.0000	82.5835
1159.0000	83.2034
1158.0000	83.7278
1157.0000	84.1795
1156.0000	84.5386
1155.0000	84.7783
1154.0000	84.8606
1153.0000	84.828
1152.0000	84.7348
1151.0000	84.4824
1150.0000	84.1605
1149.0000	83.7298
1148.0000	83.1997
1147.0000	82.6127
1146.0000	81.9388
1145.0000	81.2099
1144.0000	80.4302
1143.0000	79.6055
1142.0000	78.8044
1141.0000	78.0045
1140.0000	77.1812
1139.0000	76.361
1138.0000	75.6227
1137.0000	74.9072
1136.0000	74.2591
1135.0000	73.6565
1134.0000	73.1149
1133.0000	72.701
1132.0000	72.3333
1131.0000	72.0463
1130.0000	71.8516
1129.0000	71.7601
1128.0000	71.7696
1127.0000	71.824
1126.0000	71.9932
1125.0000	72.2318
1124.0000	72.5998
1123.0000	73.0091
1122.0000	73.5028
1121.0000	74.1184
1120.0000	74.8015
1119.0000	75.529
1118.0000	76.3178
1117.0000	77.1297
1116.0000	78.006
1115.0000	78.8817
1114.0000	79.7408
1113.0000	80.5806
1112.0000	81.403
1111.0000	82.1577
1110.0000	82.8499
1109.0000	83.4224
1108.0000	83.9137
1107.0000	84.2832
1106.0000	84.5278
1105.0000	84.6634
1104.0000	84.6638
1103.0000	84.5186
1102.0000	84.2779
1101.0000	83.9211
1100.0000	83.4499
1099.0000	82.8522
1098.0000	82.1612
1097.0000	81.3764
1096.0000	80.5384
1095.0000	79.6565
1094.0000	78.7489
1093.0000	77.8421
1092.0000	76.968
1091.0000	76.1317
1090.0000	75.3223
1089.0000	74.5862
1088.0000	73.9104
1087.0000	73.3446
1086.0000	72.8277
1085.0000	72.4055
1084.0000	72.0834
1083.0000	71.8703
1082.0000	71.7975
1081.0000	71.7677
1080.0000	71.8964
1079.0000	72.1294
1078.0000	72.4909
1077.0000	72.9304
1076.0000	73.4544
1075.0000	74.0529
1074.0000	74.7713
1073.0000	75.5139
1072.0000	76.3536
1071.0000	77.2159
1070.0000	78.0985
1069.0000	79.0076
1068.0000	79.9092
1067.0000	80.8214
1066.0000	81.6315
1065.0000	82.3618
1064.0000	83.0363
1063.0000	83.5841
1062.0000	83.9898
1061.0000	84.2566
1060.0000	84.3817
1059.0000	84.3385
1058.0000	84.1658
1057.0000	83.826
1056.0000	83.3566
1055.0000	82.7224
1054.0000	82.0034
1053.0000	81.1984
1052.0000	80.3454
1051.0000	79.396
1050.0000	78.4128
1049.0000	77.4769
1048.0000	76.5297
1047.0000	75.6126
1046.0000	74.7498
1045.0000	73.9884
1044.0000	73.3255
1043.0000	72.7549
1042.0000	72.2793
1041.0000	71.9239
1040.0000	71.707
1039.0000	71.607
1038.0000	71.6447
1037.0000	71.783
1036.0000	72.0876
1035.0000	72.5117
1034.0000	73.0432
1033.0000	73.6916
1032.0000	74.4449
1031.0000	75.2762
1030.0000	76.1633
1029.0000	77.1179
1028.0000	78.0933
1027.0000	79.088
1026.0000	80.0694
1025.0000	80.9885
1024.0000	81.8436
1023.0000	82.6217
1022.0000	83.2242
1021.0000	83.7222
1020.0000	84.0372
1019.0000	84.16
1018.0000	84.1289
1017.0000	83.9157
1016.0000	83.5103
1015.0000	82.9933
1014.0000	82.2768
1013.0000	81.463
1012.0000	80.5021
1011.0000	79.5011
1010.0000	78.4756
1009.0000	77.4221
1008.0000	76.3877
1007.0000	75.3945
1006.0000	74.5415
1005.0000	73.7157
1004.0000	73.0082
1003.0000	72.4041
1002.0000	71.919
1001.0000	71.627
1000.0000	71.4027
999.0000	71.3877
998.0000	71.4977
997.0000	71.799
996.0000	72.2854
995.0000	72.842
994.0000	73.6058
993.0000	74.4355
992.0000	75.3641
991.0000	76.3694
990.0000	77.4011
989.0000	78.446
988.0000	79.4897
987.0000	80.4618
986.0000	81.3755
985.0000	82.1645
984.0000	82.8304
983.0000	83.357
982.0000	83.6891
981.0000	83.8053
980.0000	83.7792
979.0000	83.5214
978.0000	83.0769
977.0000	82.4333
976.0000	81.6305
975.0000	80.7122
974.0000	79.6924
973.0000	78.6101
972.0000	77.48
971.0000	76.398
970.0000	75.3458
969.0000	74.367
968.0000	73.4953
967.0000	72.7689
966.0000	72.1577
965.0000	71.7324
964.0000	71.4955
963.0000	71.4539
962.0000	71.5446
961.0000	71.7917
960.0000	72.2368
959.0000	72.8353
958.0000	73.6011
957.0000	74.4743
956.0000	75.4664
955.0000	76.5257
954.0000	77.6084
953.0000	78.7789
952.0000	79.8374
951.0000	80.8504
950.0000	81.7449
949.0000	82.5189
948.0000	83.0878
947.0000	83.4386
946.0000	83.552
945.0000	83.412
944.0000	83.1338
943.0000	82.5782
942.0000	81.8621
941.0000	80.9334
940.0000	79.9168
939.0000	78.8667
938.0000	77.7084
937.0000	76.492
936.0000	75.3759
935.0000	74.3558
934.0000	73.4425
933.0000	72.6144
932.0000	71.9898
931.0000	71.5789
930.0000	71.365
929.0000	71.2434
928.0000	71.4435
927.0000	71.7627
926.0000	72.3037
925.0000	72.9911
924.0000	73.8224
923.0000	74.8598
922.0000	75.8842
921.0000	77.0367
920.0000	78.2325
919.0000	79.3547
918.0000	80.4475
917.0000	81.4263
916.0000	82.273
915.0000	82.8281
914.0000	83.1856
913.0000	83.3138
912.0000	83.1266
911.0000	82.6781
910.0000	81.9656
909.0000	81.1602
908.0000	80.0951
907.0000	78.9786
906.0000	77.6982
905.0000	76.4708
904.0000	75.3094
903.0000	74.1624
902.0000	73.2303
901.0000	72.3974
900.0000	72.783
899.0000	72.174
898.0000	71.6415
897.0000	71.1855
896.0000	71.1765
895.0000	71.1992
894.0000	71.3492
893.0000	71.9548
892.0000	72.7997
891.0000	73.7557
890.0000	75.0425
889.0000	76.278
888.0000	77.6969
887.0000	78.9154
886.0000	80.0807
885.0000	81.1403
884.0000	81.9167
883.0000	82.7184
882.0000	82.9391
881.0000	83.1041
880.0000	82.8331
879.0000	82.24
878.0000	81.4121
877.0000	80.2166
876.0000	78.9678
875.0000	77.6288
874.0000	76.238
873.0000	74.9481
872.0000	73.7815
871.0000	72.7133
870.0000	71.8478
869.0000	71.1521
868.0000	70.7942
867.0000	70.5873
866.0000	70.6279
865.0000	70.9924
864.0000	71.6232
863.0000	72.5033
862.0000	73.5793
861.0000	74.8189
860.0000	76.1836
859.0000	77.6419
858.0000	79.0478
857.0000	80.3197
856.0000	81.4162
855.0000	82.2407
854.0000	82.7254
853.0000	82.8964
852.0000	82.6833
851.0000	82.1248
850.0000	81.2373
849.0000	80.0669
848.0000	78.7588
847.0000	77.3288
846.0000	75.8699
845.0000	74.4625
844.0000	73.1753
843.0000	72.0863
842.0000	71.2341
841.0000	70.6865
840.0000	70.4122
839.0000	70.4557
838.0000	70.8049
837.0000	71.4846
836.0000	72.4006
835.0000	73.545
834.0000	74.8611
833.0000	76.3171
832.0000	77.7913
831.0000	79.1992
830.0000	80.4714
829.0000	81.5374
828.0000	82.2847
827.0000	82.6363
826.0000	82.5958
825.0000	82.1568
824.0000	81.3537
823.0000	80.2258
822.0000	78.8752
821.0000	77.384
820.0000	75.8654
819.0000	74.3946
818.0000	73.0452
817.0000	71.9191
816.0000	71.0758
815.0000	70.5457
814.0000	70.372
813.0000	70.5307
812.0000	71.0637
811.0000	71.9279
810.0000	73.0543
809.0000	74.3907
808.0000	75.8907
807.0000	77.4443
806.0000	78.9597
805.0000	80.2839
804.0000	81.3715
803.0000	82.09
802.0000	82.3931
801.0000	82.2511
800.0000	81.6323
799.0000	80.6522
798.0000	79.338
797.0000	77.8234
796.0000	76.2082
795.0000	74.6414
794.0000	73.2346
793.0000	72.0287
792.0000	71.1396
791.0000	70.6073
790.0000	70.4482
789.0000	70.6881
788.0000	71.3008
787.0000	72.2537
786.0000	73.505
785.0000	74.9592
784.0000	76.5589
783.0000	78.1573
782.0000	79.6134
781.0000	80.8396
780.0000	81.7141
779.0000	82.1268
778.0000	82.0706
777.0000	81.495
776.0000	80.5127
775.0000	79.1713
774.0000	77.6032
773.0000	75.9602
772.0000	74.352
771.0000	72.9195
770.0000	71.7337
769.0000	70.9181
768.0000	70.4861
767.0000	70.4683
766.0000	70.8855
765.0000	71.7327
764.0000	72.9081
763.0000	74.3854
762.0000	76.0117
761.0000	77.697
760.0000	79.267
759.0000	80.5746
758.0000	81.484
757.0000	81.9046
756.0000	81.7756
755.0000	81.1354
754.0000	80.038
753.0000	78.5589
752.0000	76.8917
751.0000	75.1812
750.0000	73.5757
749.0000	72.2311
748.0000	71.22
747.0000	70.6525
746.0000	70.5507
745.0000	70.9463
744.0000	71.805
743.0000	73.0525
742.0000	74.6028
741.0000	76.3082
740.0000	78.0323
739.0000	79.5725
738.0000	80.7941
737.0000	81.5006
736.0000	81.6576
735.0000	81.2147
734.0000	80.2374
733.0000	78.8248
732.0000	77.1398
731.0000	75.3701
730.0000	73.6862
729.0000	72.2601
728.0000	71.2022
727.0000	70.606
726.0000	70.5274
725.0000	70.991
724.0000	71.9416
723.0000	73.3143
722.0000	74.964
721.0000	76.7481
720.0000	78.4817
719.0000	79.9459
718.0000	80.9811
717.0000	81.4337
716.0000	81.2515
715.0000	80.4562
714.0000	79.1227
713.0000	77.4482
712.0000	75.6199
711.0000	73.8378
710.0000	72.3157
709.0000	71.2109
708.0000	70.6155
707.0000	70.5975
706.0000	71.1486
705.0000	72.234
704.0000	73.7437
703.0000	75.5123
702.0000	77.3499
701.0000	79.0176
700.0000	80.282
699.0000	80.979
698.0000	80.988
697.0000	80.3084
696.0000	79.0401
695.0000	77.3648
694.0000	75.5112
693.0000	73.7091
692.0000	72.1839
691.0000	71.1063
690.0000	70.6063
689.0000	70.7478
688.0000	71.5153
687.0000	72.8075
686.0000	74.4974
685.0000	76.3711
684.0000	78.1823
683.0000	79.6681
682.0000	80.5893
681.0000	80.8133
680.0000	80.3058
679.0000	79.1127
678.0000	77.4664
677.0000	75.5761
676.0000	73.7141
675.0000	72.1344
674.0000	71.068
673.0000	70.6293
672.0000	70.8589
671.0000	71.7466
670.0000	73.1819
669.0000	74.99
668.0000	76.9024
667.0000	78.6298
666.0000	79.9039
665.0000	80.4977
664.0000	80.3231
663.0000	79.3821
662.0000	77.8323
661.0000	75.9461
660.0000	74.0376
659.0000	72.3828
658.0000	71.2308
657.0000	70.7459
656.0000	71.0087
655.0000	71.9766
654.0000	73.5249
653.0000	75.3986
652.0000	77.3009
651.0000	78.9192
650.0000	79.9394
649.0000	80.1652
648.0000	79.5503
647.0000	78.2155
646.0000	76.4066
645.0000	74.4388
644.0000	72.6716
643.0000	71.3922
642.0000	70.8188
641.0000	71.0247
640.0000	71.9919
639.0000	73.5693
638.0000	75.4803
637.0000	77.3805
636.0000	78.923
635.0000	79.7821
634.0000	79.7941
633.0000	78.9513
632.0000	77.4035
631.0000	75.479
630.0000	73.5349
629.0000	71.9466
628.0000	70.986
627.0000	70.8287
626.0000	71.5101
625.0000	72.9109
624.0000	74.7753
623.0000	76.7196
622.0000	78.3674
621.0000	79.3659
620.0000	79.4836
619.0000	78.7
618.0000	77.1767
617.0000	75.2546
616.0000	73.3368
615.0000	71.8262
614.0000	71.0309
613.0000	71.1017
612.0000	72.0281
611.0000	73.6322
610.0000	75.5587
609.0000	77.3937
608.0000	78.7019
607.0000	79.1646
606.0000	78.6649
605.0000	77.3139
604.0000	75.4445
603.0000	73.5014
602.0000	71.9148
601.0000	71.0655
600.0000	71.162
599.0000	72.1462
598.0000	73.7885
597.0000	75.7222
596.0000	77.4714
595.0000	78.5738
594.0000	78.7437
593.0000	77.9244
592.0000	76.3326
591.0000	74.3881
590.0000	72.5845
589.0000	71.3817
588.0000	71.0742
587.0000	71.7519
586.0000	73.2243
585.0000	75.1056
584.0000	76.8908
583.0000	78.1132
582.0000	78.4026
581.0000	77.6744
580.0000	76.1443
579.0000	74.2365
578.0000	72.4862
577.0000	71.3626
576.0000	71.1856
575.0000	72.0004
574.0000	73.5779
573.0000	75.4592
572.0000	77.0778
571.0000	77.9659
570.0000	77.8582
569.0000	76.775
568.0000	75.046
567.0000	73.1763
566.0000	71.7603
565.0000	71.2333
564.0000	71.7411
563.0000	73.1123
562.0000	74.9136
561.0000	76.5742
560.0000	77.549
559.0000	77.5065
558.0000	76.4633
557.0000	74.7673
556.0000	73.0042
555.0000	71.749
554.0000	71.4345
553.0000	72.1642
552.0000	73.6621
551.0000	75.403
550.0000	76.7514
549.0000	77.2309
548.0000	76.6712
547.0000	75.2683
546.0000	73.5324
545.0000	72.102
544.0000	71.5136
543.0000	71.9803
542.0000	73.3045
541.0000	74.9699
540.0000	76.3231
539.0000	76.8431
538.0000	76.3395
537.0000	74.9852
536.0000	73.3083
535.0000	71.9756
534.0000	71.5239
533.0000	72.1273
532.0000	73.5065
531.0000	75.081
530.0000	76.2027
529.0000	76.417
528.0000	75.6315
527.0000	74.1739
526.0000	72.6624
525.0000	71.7631
524.0000	71.8639
523.0000	72.876
522.0000	74.3333
521.0000	75.5705
520.0000	76.0273
519.0000	75.5166
518.0000	74.2635
517.0000	72.8252
516.0000	71.8968
515.0000	71.9152
514.0000	72.8378
513.0000	74.1787
512.0000	75.2821
511.0000	75.6029
510.0000	75.0041
509.0000	73.7784
508.0000	72.5592
507.0000	71.9731
506.0000	72.2875
505.0000	73.318
504.0000	74.4634
503.0000	75.1085
502.0000	74.9272
501.0000	74.0097
500.0000	72.8787
499.0000	72.1451
498.0000	72.2199
497.0000	73.033
496.0000	74.051
495.0000	74.6918
494.0000	74.5836
493.0000	73.7986
492.0000	72.8045
491.0000	72.1975
490.0000	72.3096
489.0000	73.0353
488.0000	73.8889
487.0000	74.3341
486.0000	74.0992
485.0000	73.3437
484.0000	72.5432
483.0000	72.2178
482.0000	72.5356
481.0000	73.2103
480.0000	73.7854
479.0000	73.8686
478.0000	73.4249
477.0000	72.7382
476.0000	72.2866
475.0000	72.3552
474.0000	72.8086
473.0000	73.2717
472.0000	73.401
471.0000	73.158
470.0000	72.7124
469.0000	72.3851
468.0000	72.4018
467.0000	72.6813
466.0000	72.9725
465.0000	73.0448
464.0000	72.8633
463.0000	72.5911
462.0000	72.4347
461.0000	72.4611
460.0000	72.5721
459.0000	72.6311
458.0000	72.5979
457.0000	72.5503
456.0000	72.536
455.0000	72.4904
454.0000	72.377
453.0000	72.2205
452.0000	72.1643
451.0000	72.2725
450.0000	72.4699
449.0000	72.4997
448.0000	72.2587
447.0000	71.9141
446.0000	71.7627
445.0000	72.0008
444.0000	72.3764
443.0000	72.4507
442.0000	72.0518
441.0000	71.5134
440.0000	71.4009
439.0000	71.8288
438.0000	72.3379
437.0000	72.2798
436.0000	71.6276
435.0000	71.0521
434.0000	71.1876
433.0000	71.8955
432.0000	72.3072
431.0000	71.806
430.0000	70.8925
429.0000	70.6332
428.0000	71.3465
427.0000	72.1125
426.0000	71.8283
425.0000	70.7567
424.0000	70.2191
423.0000	70.9127
422.0000	71.875
421.0000	71.6893
420.0000	70.5239
419.0000	69.9281
418.0000	70.7328
417.0000	71.7173
416.0000	71.2719
415.0000	69.9299
414.0000	69.6076
413.0000	70.7381
412.0000	71.4466
411.0000	70.4497
410.0000	69.278
409.0000	69.7768
408.0000	70.9836
407.0000	70.6786
406.0000	69.2552
405.0000	69.1435
404.0000	70.3334
403.0000	70.4613
402.0000	69.1715
401.0000	68.8823
400.0000	69.9251
399.0000	70.0885
398.0000	68.8748
397.0000	68.5736
396.0000	69.4546
395.0000	69.2547
394.0000	68.2231
393.0000	68.2718
392.0000	68.7635
391.0000	68.2934
390.0000	67.7704
389.0000	67.9271
388.0000	67.8681
387.0000	67.4564
386.0000	67.2513
385.0000	67.0896
384.0000	67
383.0000	66.6028
382.0000	66.1083
381.0000	66.2598
380.0000	65.614
379.0000	64.9654
378.0000	65.1075
377.0000	63.923
376.0000	63.3896
375.0000	62.5052
374.0000	60.727
373.0000	58.8137
372.0000	55.539
371.0000	50.9252
370.0000	44.5538
369.0000	36.5747
368.0000	28.2196
367.0000	20.1007
366.0000	13.1708
365.0000	7.57111
364.0000	3.55662
363.0000	1.21205
362.0000	0.258722
361.0000	0.045776
360.0000	0.0221107
359.0000	0.0184359
358.0000	0.014944
357.0000	0.0132476
356.0000	0.0117392
355.0000	0.0106096
354.0000	0.0091928
353.0000	0.00824636
352.0000	0.00777353
351.0000	0.00749344
350.0000	0.00711285
349.0000	0.0067397
348.0000	0.00654772
347.0000	0.00701872
346.0000	0.0070131
345.0000	0.00682807
344.0000	0.00616891
343.0000	0.00644396
342.0000	0.00709876
341.0000	0.00634671
340.0000	0.0318323
339.0000	0.031066
338.0000	0.0302068
337.0000	0.0290279
336.0000	0.0278415
335.0000	0.0277248
334.0000	0.0262242
333.0000	0.0253709
332.0000	0.0246085
331.0000	0.0236387
330.0000	0.0233999
329.0000	0.0229557
328.0000	0.0223262
327.0000	0.0223122
326.0000	0.0222994
325.0000	0.0214325
324.0000	0.0204618
323.0000	0.0202522
322.0000	0.0187628
321.0000	0.0173687
320.0000	0.0167339
319.0000	0.0165195
318.0000	0.0157815
317.0000	0.0151516
316.0000	0.0151333
315.0000	0.0154445
314.0000	0.015549
313.0000	0.0152087
312.0000	0.0154149
311.0000	0.0151938
310.0000	0.0153989
309.0000	0.0152901
308.0000	0.0145459
307.0000	0.0145399
306.0000	0.0141122
305.0000	0.0130492
304.0000	0.0132551
303.0000	0.012717
302.0000	0.0132372
301.0000	0.0127062
300.0000	0.0122859
