TITLE	GaN
DATA TYPE	ULTRAVIOLET SPECTRUM
ORIGIN	JASCO
OWNER	
DATE	19/11/20
TIME	09:12:05
SPECTROMETER/DATA SYSTEM	
RESOLUTION	
DELTAX	-1
XUNITS	NANOMETERS
YUNITS	TRANSMITTANCE
FIRSTX	 2500.0000
LASTX	  300.0000
NPOINTS	    2201
FIRSTY	    18.97298
MAXY	    27.22773
MINY	    -0.06761
XYDATA
2500.0000	18.973
2499.0000	19.0355
2498.0000	19.051
2497.0000	18.9991
2496.0000	18.9885
2495.0000	19.0362
2494.0000	19.1393
2493.0000	19.1336
2492.0000	19.1527
2491.0000	19.2312
2490.0000	19.2759
2489.0000	19.2941
2488.0000	19.3033
2487.0000	19.3501
2486.0000	19.4332
2485.0000	19.4518
2484.0000	19.4788
2483.0000	19.5495
2482.0000	19.6123
2481.0000	19.6591
2480.0000	19.6795
2479.0000	19.7805
2478.0000	19.8306
2477.0000	19.7906
2476.0000	19.7729
2475.0000	19.7537
2474.0000	19.7648
2473.0000	19.728
2472.0000	19.7102
2471.0000	19.7935
2470.0000	19.854
2469.0000	19.9175
2468.0000	19.9126
2467.0000	19.9252
2466.0000	19.9539
2465.0000	19.9248
2464.0000	19.8947
2463.0000	19.9175
2462.0000	19.9305
2461.0000	19.8981
2460.0000	19.8958
2459.0000	19.8713
2458.0000	19.8785
2457.0000	19.8603
2456.0000	19.8954
2455.0000	19.85
2454.0000	19.893
2453.0000	19.8305
2452.0000	19.8879
2451.0000	19.8813
2450.0000	19.8176
2449.0000	19.8102
2448.0000	19.776
2447.0000	19.7971
2446.0000	19.8005
2445.0000	19.79
2444.0000	19.7804
2443.0000	19.815
2442.0000	19.7998
2441.0000	19.753
2440.0000	19.665
2439.0000	19.6035
2438.0000	19.558
2437.0000	19.5022
2436.0000	19.4791
2435.0000	19.4739
2434.0000	19.4578
2433.0000	19.4565
2432.0000	19.5165
2431.0000	19.4925
2430.0000	19.4269
2429.0000	19.4006
2428.0000	19.3589
2427.0000	19.3532
2426.0000	19.2708
2425.0000	19.2397
2424.0000	19.2095
2423.0000	19.1632
2422.0000	19.098
2421.0000	19.0778
2420.0000	19.0778
2419.0000	18.9908
2418.0000	18.9518
2417.0000	18.9106
2416.0000	18.9259
2415.0000	18.8598
2414.0000	18.8365
2413.0000	18.8398
2412.0000	18.8218
2411.0000	18.7865
2410.0000	18.7023
2409.0000	18.6693
2408.0000	18.6026
2407.0000	18.5268
2406.0000	18.5244
2405.0000	18.5053
2404.0000	18.5173
2403.0000	18.5204
2402.0000	18.4936
2401.0000	18.5052
2400.0000	18.4843
2399.0000	18.4414
2398.0000	18.391
2397.0000	18.3504
2396.0000	18.3226
2395.0000	18.293
2394.0000	18.2647
2393.0000	18.2129
2392.0000	18.1896
2391.0000	18.1719
2390.0000	18.1569
2389.0000	18.1266
2388.0000	18.0674
2387.0000	18.0573
2386.0000	18.0271
2385.0000	17.9628
2384.0000	17.9215
2383.0000	17.9106
2382.0000	17.9253
2381.0000	17.9361
2380.0000	17.9167
2379.0000	17.9244
2378.0000	17.9363
2377.0000	17.8737
2376.0000	17.8574
2375.0000	17.8381
2374.0000	17.8365
2373.0000	17.8323
2372.0000	17.8539
2371.0000	17.8556
2370.0000	17.8701
2369.0000	17.8927
2368.0000	17.8985
2367.0000	17.8945
2366.0000	17.8979
2365.0000	17.8855
2364.0000	17.8971
2363.0000	17.906
2362.0000	17.8921
2361.0000	17.9164
2360.0000	17.9224
2359.0000	17.9261
2358.0000	17.9482
2357.0000	17.9684
2356.0000	17.951
2355.0000	17.9632
2354.0000	17.952
2353.0000	17.9807
2352.0000	18.0075
2351.0000	18.014
2350.0000	18.0521
2349.0000	18.0821
2348.0000	18.0692
2347.0000	18.0965
2346.0000	18.1111
2345.0000	18.1247
2344.0000	18.1409
2343.0000	18.1772
2342.0000	18.2283
2341.0000	18.2722
2340.0000	18.3338
2339.0000	18.3632
2338.0000	18.4024
2337.0000	18.4185
2336.0000	18.4635
2335.0000	18.4778
2334.0000	18.5104
2333.0000	18.5567
2332.0000	18.6012
2331.0000	18.6629
2330.0000	18.7053
2329.0000	18.757
2328.0000	18.8176
2327.0000	18.8576
2326.0000	18.8871
2325.0000	18.9333
2324.0000	18.979
2323.0000	19.0394
2322.0000	19.0687
2321.0000	19.1097
2320.0000	19.1812
2319.0000	19.2236
2318.0000	19.2824
2317.0000	19.3333
2316.0000	19.3704
2315.0000	19.4288
2314.0000	19.4557
2313.0000	19.5066
2312.0000	19.5468
2311.0000	19.6013
2310.0000	19.6661
2309.0000	19.7178
2308.0000	19.7682
2307.0000	19.8299
2306.0000	19.8647
2305.0000	19.9195
2304.0000	19.9686
2303.0000	20.0371
2302.0000	20.1013
2301.0000	20.1462
2300.0000	20.2176
2299.0000	20.2615
2298.0000	20.3295
2297.0000	20.3464
2296.0000	20.3603
2295.0000	20.4063
2294.0000	20.4569
2293.0000	20.552
2292.0000	20.5993
2291.0000	20.6836
2290.0000	20.7451
2289.0000	20.8235
2288.0000	20.8848
2287.0000	20.902
2286.0000	20.9498
2285.0000	20.96
2284.0000	21
2283.0000	21.0413
2282.0000	21.1071
2281.0000	21.1308
2280.0000	21.1725
2279.0000	21.2255
2278.0000	21.2733
2277.0000	21.3041
2276.0000	21.3184
2275.0000	21.336
2274.0000	21.3579
2273.0000	21.3707
2272.0000	21.3737
2271.0000	21.4318
2270.0000	21.4844
2269.0000	21.5288
2268.0000	21.5362
2267.0000	21.5488
2266.0000	21.5882
2265.0000	21.5903
2264.0000	21.5633
2263.0000	21.5699
2262.0000	21.577
2261.0000	21.6004
2260.0000	21.5847
2259.0000	21.5807
2258.0000	21.621
2257.0000	21.6157
2256.0000	21.5932
2255.0000	21.5614
2254.0000	21.5486
2253.0000	21.5622
2252.0000	21.5083
2251.0000	21.4975
2250.0000	21.4943
2249.0000	21.4842
2248.0000	21.486
2247.0000	21.4695
2246.0000	21.4356
2245.0000	21.3986
2244.0000	21.3846
2243.0000	21.3221
2242.0000	21.2758
2241.0000	21.2262
2240.0000	21.1949
2239.0000	21.1821
2238.0000	21.1211
2237.0000	21.1094
2236.0000	21.0847
2235.0000	21.0493
2234.0000	20.9528
2233.0000	20.8773
2232.0000	20.8364
2231.0000	20.7668
2230.0000	20.6874
2229.0000	20.6118
2228.0000	20.5434
2227.0000	20.4949
2226.0000	20.4586
2225.0000	20.3881
2224.0000	20.3408
2223.0000	20.284
2222.0000	20.2327
2221.0000	20.1375
2220.0000	20.0887
2219.0000	20.0087
2218.0000	19.956
2217.0000	19.8909
2216.0000	19.8318
2215.0000	19.7974
2214.0000	19.7326
2213.0000	19.732
2212.0000	19.6612
2211.0000	19.5745
2210.0000	19.521
2209.0000	19.4872
2208.0000	19.4204
2207.0000	19.35
2206.0000	19.2814
2205.0000	19.2209
2204.0000	19.1744
2203.0000	19.1006
2202.0000	19.0473
2201.0000	19.0188
2200.0000	18.9525
2199.0000	18.9416
2198.0000	18.8986
2197.0000	18.9073
2196.0000	18.8347
2195.0000	18.804
2194.0000	18.7882
2193.0000	18.7211
2192.0000	18.7106
2191.0000	18.6429
2190.0000	18.6369
2189.0000	18.5783
2188.0000	18.5488
2187.0000	18.5125
2186.0000	18.4447
2185.0000	18.4369
2184.0000	18.3943
2183.0000	18.3609
2182.0000	18.3323
2181.0000	18.3318
2180.0000	18.312
2179.0000	18.2961
2178.0000	18.2607
2177.0000	18.2353
2176.0000	18.2261
2175.0000	18.1845
2174.0000	18.1886
2173.0000	18.1658
2172.0000	18.1478
2171.0000	18.1313
2170.0000	18.1401
2169.0000	18.1126
2168.0000	18.1317
2167.0000	18.1085
2166.0000	18.1121
2165.0000	18.1035
2164.0000	18.12
2163.0000	18.1609
2162.0000	18.1769
2161.0000	18.2059
2160.0000	18.2009
2159.0000	18.2092
2158.0000	18.2246
2157.0000	18.213
2156.0000	18.2118
2155.0000	18.2408
2154.0000	18.2218
2153.0000	18.2293
2152.0000	18.2543
2151.0000	18.2851
2150.0000	18.3183
2149.0000	18.3469
2148.0000	18.3822
2147.0000	18.4456
2146.0000	18.4972
2145.0000	18.54
2144.0000	18.5592
2143.0000	18.6011
2142.0000	18.6506
2141.0000	18.6637
2140.0000	18.6767
2139.0000	18.7142
2138.0000	18.7612
2137.0000	18.8143
2136.0000	18.8197
2135.0000	18.8859
2134.0000	18.9642
2133.0000	18.9911
2132.0000	19.0435
2131.0000	19.0998
2130.0000	19.1666
2129.0000	19.2399
2128.0000	19.3316
2127.0000	19.3818
2126.0000	19.4837
2125.0000	19.5362
2124.0000	19.6099
2123.0000	19.6551
2122.0000	19.7196
2121.0000	19.8146
2120.0000	19.877
2119.0000	19.9639
2118.0000	19.9943
2117.0000	20.089
2116.0000	20.1784
2115.0000	20.2335
2114.0000	20.2965
2113.0000	20.3701
2112.0000	20.439
2111.0000	20.4917
2110.0000	20.5537
2109.0000	20.6098
2108.0000	20.6919
2107.0000	20.7733
2106.0000	20.823
2105.0000	20.9119
2104.0000	21.0004
2103.0000	21.0864
2102.0000	21.1638
2101.0000	21.216
2100.0000	21.2573
2099.0000	21.338
2098.0000	21.3531
2097.0000	21.3983
2096.0000	21.4458
2095.0000	21.4794
2094.0000	21.5205
2093.0000	21.5651
2092.0000	21.6551
2091.0000	21.6917
2090.0000	21.7676
2089.0000	21.7991
2088.0000	21.8545
2087.0000	21.8836
2086.0000	21.8935
2085.0000	21.9345
2084.0000	21.9449
2083.0000	21.9617
2082.0000	21.9797
2081.0000	21.9917
2080.0000	22.0117
2079.0000	22.0296
2078.0000	22.034
2077.0000	22.0654
2076.0000	22.0908
2075.0000	22.0761
2074.0000	22.093
2073.0000	22.0719
2072.0000	22.0603
2071.0000	22.051
2070.0000	22.0708
2069.0000	22.0488
2068.0000	22.021
2067.0000	22.0071
2066.0000	21.9689
2065.0000	21.9679
2064.0000	21.9348
2063.0000	21.8715
2062.0000	21.8289
2061.0000	21.7893
2060.0000	21.7642
2059.0000	21.7312
2058.0000	21.6433
2057.0000	21.6291
2056.0000	21.565
2055.0000	21.5155
2054.0000	21.4708
2053.0000	21.3924
2052.0000	21.3242
2051.0000	21.28
2050.0000	21.2024
2049.0000	21.1416
2048.0000	21.0846
2047.0000	21.0275
2046.0000	20.988
2045.0000	20.9073
2044.0000	20.8297
2043.0000	20.7928
2042.0000	20.7263
2041.0000	20.6656
2040.0000	20.6041
2039.0000	20.5324
2038.0000	20.5111
2037.0000	20.4276
2036.0000	20.3385
2035.0000	20.288
2034.0000	20.2191
2033.0000	20.1301
2032.0000	20.0876
2031.0000	20.001
2030.0000	19.9201
2029.0000	19.8922
2028.0000	19.7884
2027.0000	19.7494
2026.0000	19.7146
2025.0000	19.6338
2024.0000	19.6028
2023.0000	19.5377
2022.0000	19.4611
2021.0000	19.4474
2020.0000	19.3658
2019.0000	19.3338
2018.0000	19.2649
2017.0000	19.2072
2016.0000	19.1801
2015.0000	19.1222
2014.0000	19.066
2013.0000	19.0389
2012.0000	18.9967
2011.0000	18.9919
2010.0000	18.9461
2009.0000	18.9065
2008.0000	18.9021
2007.0000	18.8464
2006.0000	18.8264
2005.0000	18.7929
2004.0000	18.7601
2003.0000	18.7709
2002.0000	18.7307
2001.0000	18.7448
2000.0000	18.7542
1999.0000	18.7237
1998.0000	18.766
1997.0000	18.7557
1996.0000	18.7829
1995.0000	18.7828
1994.0000	18.7329
1993.0000	18.8118
1992.0000	18.804
1991.0000	18.8015
1990.0000	18.8484
1989.0000	18.8645
1988.0000	18.9202
1987.0000	18.9472
1986.0000	18.9139
1985.0000	18.9854
1984.0000	18.9853
1983.0000	19.052
1982.0000	19.1013
1981.0000	19.1371
1980.0000	19.249
1979.0000	19.2866
1978.0000	19.3342
1977.0000	19.3617
1976.0000	19.4099
1975.0000	19.4839
1974.0000	19.4959
1973.0000	19.545
1972.0000	19.6022
1971.0000	19.6563
1970.0000	19.7442
1969.0000	19.7975
1968.0000	19.844
1967.0000	19.9347
1966.0000	19.9329
1965.0000	20.0185
1964.0000	20.0598
1963.0000	20.0871
1962.0000	20.1358
1961.0000	20.1295
1960.0000	20.2173
1959.0000	20.2311
1958.0000	20.2494
1957.0000	20.3406
1956.0000	20.4001
1955.0000	20.509
1954.0000	20.5675
1953.0000	20.6394
1952.0000	20.7757
1951.0000	20.8066
1950.0000	20.9213
1949.0000	20.9947
1948.0000	21.0886
1947.0000	21.1788
1946.0000	21.2429
1945.0000	21.3367
1944.0000	21.3483
1943.0000	21.3678
1942.0000	21.4202
1941.0000	21.4275
1940.0000	21.4828
1939.0000	21.4938
1938.0000	21.5588
1937.0000	21.6453
1936.0000	21.7124
1935.0000	21.799
1934.0000	21.8336
1933.0000	21.8448
1932.0000	21.8843
1931.0000	21.8852
1930.0000	21.911
1929.0000	21.8896
1928.0000	21.9243
1927.0000	21.928
1926.0000	21.9265
1925.0000	21.8556
1924.0000	21.7611
1923.0000	21.7149
1922.0000	21.7045
1921.0000	21.7395
1920.0000	21.7483
1919.0000	21.779
1918.0000	21.8371
1917.0000	21.8075
1916.0000	21.7883
1915.0000	21.7287
1914.0000	21.7072
1913.0000	21.7104
1912.0000	21.6691
1911.0000	21.6211
1910.0000	21.5112
1909.0000	21.3465
1908.0000	21.1479
1907.0000	20.9731
1906.0000	20.8335
1905.0000	20.7003
1904.0000	20.6682
1903.0000	20.631
1902.0000	20.7106
1901.0000	20.7182
1900.0000	21.4692
1899.0000	21.5503
1898.0000	21.5654
1897.0000	21.6097
1896.0000	21.5614
1895.0000	21.4996
1894.0000	21.3953
1893.0000	21.3123
1892.0000	21.2693
1891.0000	21.2098
1890.0000	21.1821
1889.0000	21.1013
1888.0000	21.0335
1887.0000	20.9464
1886.0000	20.8664
1885.0000	20.8178
1884.0000	20.7357
1883.0000	20.7105
1882.0000	20.6034
1881.0000	20.5011
1880.0000	20.3812
1879.0000	20.1551
1878.0000	19.8652
1877.0000	19.5367
1876.0000	19.2222
1875.0000	18.9432
1874.0000	18.7052
1873.0000	18.5787
1872.0000	18.5955
1871.0000	18.7435
1870.0000	18.9655
1869.0000	19.2253
1868.0000	19.4691
1867.0000	19.6229
1866.0000	19.6543
1865.0000	19.702
1864.0000	19.6602
1863.0000	19.5404
1862.0000	19.4474
1861.0000	19.3089
1860.0000	19.2446
1859.0000	19.1925
1858.0000	19.1754
1857.0000	19.2064
1856.0000	19.2856
1855.0000	19.3764
1854.0000	19.3845
1853.0000	19.3526
1852.0000	19.2486
1851.0000	19.1921
1850.0000	19.1628
1849.0000	19.1773
1848.0000	19.2706
1847.0000	19.3699
1846.0000	19.4799
1845.0000	19.527
1844.0000	19.6017
1843.0000	19.5423
1842.0000	19.5521
1841.0000	19.5215
1840.0000	19.5906
1839.0000	19.6934
1838.0000	19.7895
1837.0000	19.9395
1836.0000	20.0096
1835.0000	20.1185
1834.0000	20.1689
1833.0000	20.2878
1832.0000	20.3575
1831.0000	20.4274
1830.0000	20.4897
1829.0000	20.6207
1828.0000	20.7684
1827.0000	20.8895
1826.0000	21.0361
1825.0000	21.136
1824.0000	21.2678
1823.0000	21.3828
1822.0000	21.551
1821.0000	21.6983
1820.0000	21.843
1819.0000	21.969
1818.0000	22.1258
1817.0000	22.2584
1816.0000	22.35
1815.0000	22.4428
1814.0000	22.5439
1813.0000	22.6882
1812.0000	22.8035
1811.0000	22.9447
1810.0000	23.083
1809.0000	23.2034
1808.0000	23.3425
1807.0000	23.4545
1806.0000	23.5641
1805.0000	23.675
1804.0000	23.7841
1803.0000	23.8839
1802.0000	24.0089
1801.0000	24.09
1800.0000	24.1921
1799.0000	24.2643
1798.0000	24.3592
1797.0000	24.4272
1796.0000	24.5026
1795.0000	24.5599
1794.0000	24.6266
1793.0000	24.6951
1792.0000	24.7552
1791.0000	24.7973
1790.0000	24.8144
1789.0000	24.8455
1788.0000	24.8775
1787.0000	24.8862
1786.0000	24.8946
1785.0000	24.8968
1784.0000	24.9145
1783.0000	24.9128
1782.0000	24.8733
1781.0000	24.8777
1780.0000	24.8452
1779.0000	24.8152
1778.0000	24.7689
1777.0000	24.7371
1776.0000	24.6884
1775.0000	24.6433
1774.0000	24.5775
1773.0000	24.5234
1772.0000	24.4678
1771.0000	24.4147
1770.0000	24.3268
1769.0000	24.2653
1768.0000	24.1861
1767.0000	24.1183
1766.0000	24.0414
1765.0000	23.95
1764.0000	23.8724
1763.0000	23.7832
1762.0000	23.6952
1761.0000	23.5939
1760.0000	23.5071
1759.0000	23.4113
1758.0000	23.3164
1757.0000	23.2318
1756.0000	23.1426
1755.0000	23.0683
1754.0000	22.9763
1753.0000	22.9136
1752.0000	22.8176
1751.0000	22.7687
1750.0000	22.6751
1749.0000	22.6182
1748.0000	22.5402
1747.0000	22.4778
1746.0000	22.4108
1745.0000	22.3412
1744.0000	22.2573
1743.0000	22.198
1742.0000	22.1328
1741.0000	22.0787
1740.0000	22.0199
1739.0000	21.9696
1738.0000	21.9166
1737.0000	21.8748
1736.0000	21.84
1735.0000	21.792
1734.0000	21.7513
1733.0000	21.7188
1732.0000	21.6728
1731.0000	21.64
1730.0000	21.6095
1729.0000	21.5768
1728.0000	21.5486
1727.0000	21.5239
1726.0000	21.4903
1725.0000	21.4692
1724.0000	21.4364
1723.0000	21.4262
1722.0000	21.4058
1721.0000	21.3991
1720.0000	21.393
1719.0000	21.3931
1718.0000	21.3919
1717.0000	21.3992
1716.0000	21.4092
1715.0000	21.4122
1714.0000	21.4311
1713.0000	21.4697
1712.0000	21.4621
1711.0000	21.5001
1710.0000	21.5379
1709.0000	21.5874
1708.0000	21.63
1707.0000	21.6504
1706.0000	21.7238
1705.0000	21.7674
1704.0000	21.8072
1703.0000	21.8704
1702.0000	21.9403
1701.0000	22.0206
1700.0000	22.0928
1699.0000	22.1581
1698.0000	22.2968
1697.0000	22.3746
1696.0000	22.5109
1695.0000	22.6306
1694.0000	22.77
1693.0000	22.9432
1692.0000	23.0941
1691.0000	23.2629
1690.0000	23.414
1689.0000	23.578
1688.0000	23.7201
1687.0000	23.866
1686.0000	23.9991
1685.0000	24.1179
1684.0000	24.2496
1683.0000	24.3467
1682.0000	24.448
1681.0000	24.5345
1680.0000	24.6326
1679.0000	24.7354
1678.0000	24.8163
1677.0000	24.8896
1676.0000	24.9677
1675.0000	25.0456
1674.0000	25.1055
1673.0000	25.14
1672.0000	25.1779
1671.0000	25.2067
1670.0000	25.24
1669.0000	25.2648
1668.0000	25.2725
1667.0000	25.2708
1666.0000	25.2612
1665.0000	25.2542
1664.0000	25.2094
1663.0000	25.1537
1662.0000	25.0755
1661.0000	24.9876
1660.0000	24.8787
1659.0000	24.7675
1658.0000	24.6397
1657.0000	24.5016
1656.0000	24.3417
1655.0000	24.1928
1654.0000	24.0427
1653.0000	23.8857
1652.0000	23.7607
1651.0000	23.6074
1650.0000	23.5088
1649.0000	23.3929
1648.0000	23.2715
1647.0000	23.1656
1646.0000	23.0476
1645.0000	22.9304
1644.0000	22.8193
1643.0000	22.7036
1642.0000	22.595
1641.0000	22.4837
1640.0000	22.3738
1639.0000	22.2563
1638.0000	22.1518
1637.0000	22.0566
1636.0000	21.9537
1635.0000	21.8574
1634.0000	21.7689
1633.0000	21.7025
1632.0000	21.6241
1631.0000	21.5658
1630.0000	21.5069
1629.0000	21.4505
1628.0000	21.3999
1627.0000	21.3552
1626.0000	21.3241
1625.0000	21.3013
1624.0000	21.2698
1623.0000	21.2547
1622.0000	21.253
1621.0000	21.2382
1620.0000	21.2406
1619.0000	21.2371
1618.0000	21.2493
1617.0000	21.2646
1616.0000	21.2632
1615.0000	21.3073
1614.0000	21.3576
1613.0000	21.3953
1612.0000	21.4547
1611.0000	21.5136
1610.0000	21.5872
1609.0000	21.655
1608.0000	21.7308
1607.0000	21.8052
1606.0000	21.9
1605.0000	22.0067
1604.0000	22.1148
1603.0000	22.2179
1602.0000	22.3203
1601.0000	22.4713
1600.0000	22.6402
1599.0000	22.8486
1598.0000	23.0569
1597.0000	23.2401
1596.0000	23.4085
1595.0000	23.5527
1594.0000	23.6504
1593.0000	23.7121
1592.0000	23.7532
1591.0000	23.8253
1590.0000	23.9267
1589.0000	24.0527
1588.0000	24.1769
1587.0000	24.3056
1586.0000	24.4525
1585.0000	24.57
1584.0000	24.69
1583.0000	24.7918
1582.0000	24.8998
1581.0000	25.018
1580.0000	25.1087
1579.0000	25.2047
1578.0000	25.2923
1577.0000	25.3816
1576.0000	25.4517
1575.0000	25.5217
1574.0000	25.5913
1573.0000	25.6245
1572.0000	25.6591
1571.0000	25.6723
1570.0000	25.6945
1569.0000	25.6962
1568.0000	25.6887
1567.0000	25.6675
1566.0000	25.6381
1565.0000	25.6034
1564.0000	25.5603
1563.0000	25.4921
1562.0000	25.421
1561.0000	25.3484
1560.0000	25.2577
1559.0000	25.1694
1558.0000	25.0682
1557.0000	24.953
1556.0000	24.8432
1555.0000	24.7193
1554.0000	24.5948
1553.0000	24.475
1552.0000	24.3399
1551.0000	24.2147
1550.0000	24.0829
1549.0000	23.9358
1548.0000	23.8001
1547.0000	23.664
1546.0000	23.5312
1545.0000	23.4063
1544.0000	23.2751
1543.0000	23.1584
1542.0000	23.0207
1541.0000	22.9088
1540.0000	22.7986
1539.0000	22.6992
1538.0000	22.5983
1537.0000	22.5087
1536.0000	22.4155
1535.0000	22.3348
1534.0000	22.2591
1533.0000	22.1849
1532.0000	22.1306
1531.0000	22.0528
1530.0000	22.0259
1529.0000	21.9695
1528.0000	21.9229
1527.0000	21.9076
1526.0000	21.8895
1525.0000	21.8851
1524.0000	21.877
1523.0000	21.8955
1522.0000	21.9138
1521.0000	21.9396
1520.0000	21.9602
1519.0000	22.0086
1518.0000	22.0548
1517.0000	22.1146
1516.0000	22.1786
1515.0000	22.271
1514.0000	22.3507
1513.0000	22.4623
1512.0000	22.5684
1511.0000	22.6755
1510.0000	22.8002
1509.0000	22.907
1508.0000	23.0272
1507.0000	23.1501
1506.0000	23.293
1505.0000	23.4255
1504.0000	23.5718
1503.0000	23.7213
1502.0000	23.8723
1501.0000	24.0171
1500.0000	24.1742
1499.0000	24.3172
1498.0000	24.4679
1497.0000	24.6358
1496.0000	24.7831
1495.0000	24.9352
1494.0000	25.1011
1493.0000	25.2452
1492.0000	25.3758
1491.0000	25.5202
1490.0000	25.6342
1489.0000	25.7392
1488.0000	25.8504
1487.0000	25.942
1486.0000	26.0274
1485.0000	26.0896
1484.0000	26.1581
1483.0000	26.2028
1482.0000	26.2388
1481.0000	26.2663
1480.0000	26.2818
1479.0000	26.2853
1478.0000	26.2536
1477.0000	26.232
1476.0000	26.1686
1475.0000	26.1188
1474.0000	26.05
1473.0000	25.9535
1472.0000	25.8697
1471.0000	25.7591
1470.0000	25.6558
1469.0000	25.5286
1468.0000	25.4047
1467.0000	25.2707
1466.0000	25.1238
1465.0000	24.9718
1464.0000	24.8298
1463.0000	24.6817
1462.0000	24.5242
1461.0000	24.3657
1460.0000	24.2088
1459.0000	24.0545
1458.0000	23.8887
1457.0000	23.7145
1456.0000	23.5693
1455.0000	23.4091
1454.0000	23.2491
1453.0000	23.1184
1452.0000	22.9968
1451.0000	22.8726
1450.0000	22.7481
1449.0000	22.6496
1448.0000	22.5609
1447.0000	22.4602
1446.0000	22.3831
1445.0000	22.317
1444.0000	22.2489
1443.0000	22.2066
1442.0000	22.1508
1441.0000	22.1312
1440.0000	22.1003
1439.0000	22.0927
1438.0000	22.1009
1437.0000	22.1155
1436.0000	22.1468
1435.0000	22.1946
1434.0000	22.2454
1433.0000	22.296
1432.0000	22.3712
1431.0000	22.4547
1430.0000	22.5387
1429.0000	22.6356
1428.0000	22.739
1427.0000	22.8663
1426.0000	22.9885
1425.0000	23.1219
1424.0000	23.2592
1423.0000	23.4227
1422.0000	23.5602
1421.0000	23.7252
1420.0000	23.8835
1419.0000	24.0352
1418.0000	24.1992
1417.0000	24.3652
1416.0000	24.5379
1415.0000	24.7074
1414.0000	24.8644
1413.0000	25.0232
1412.0000	25.1725
1411.0000	25.3084
1410.0000	25.4493
1409.0000	25.5719
1408.0000	25.7146
1407.0000	25.8445
1406.0000	25.9431
1405.0000	26.0408
1404.0000	26.1023
1403.0000	26.1577
1402.0000	26.1884
1401.0000	26.1916
1400.0000	26.1707
1399.0000	26.1489
1398.0000	26.1191
1397.0000	26.1072
1396.0000	26.0665
1395.0000	26.0383
1394.0000	25.985
1393.0000	25.9332
1392.0000	25.8562
1391.0000	25.7263
1390.0000	25.5622
1389.0000	25.3503
1388.0000	25.1218
1387.0000	24.8751
1386.0000	24.6519
1385.0000	24.4309
1384.0000	24.2702
1383.0000	24.1497
1382.0000	24.0582
1381.0000	23.9845
1380.0000	23.9137
1379.0000	23.8361
1378.0000	23.7303
1377.0000	23.5975
1376.0000	23.4488
1375.0000	23.2963
1374.0000	23.1426
1373.0000	22.9803
1372.0000	22.8262
1371.0000	22.6749
1370.0000	22.5373
1369.0000	22.4231
1368.0000	22.3418
1367.0000	22.2625
1366.0000	22.2128
1365.0000	22.1985
1364.0000	22.1987
1363.0000	22.2282
1362.0000	22.2599
1361.0000	22.3043
1360.0000	22.3629
1359.0000	22.4299
1358.0000	22.5108
1357.0000	22.6154
1356.0000	22.7379
1355.0000	22.8947
1354.0000	23.0454
1353.0000	23.2248
1352.0000	23.401
1351.0000	23.5869
1350.0000	23.7627
1349.0000	23.9381
1348.0000	24.1268
1347.0000	24.3175
1346.0000	24.5122
1345.0000	24.7028
1344.0000	24.9041
1343.0000	25.1094
1342.0000	25.3124
1341.0000	25.5009
1340.0000	25.6888
1339.0000	25.8759
1338.0000	26.0405
1337.0000	26.197
1336.0000	26.3433
1335.0000	26.4768
1334.0000	26.6023
1333.0000	26.7117
1332.0000	26.7966
1331.0000	26.8776
1330.0000	26.9285
1329.0000	26.9635
1328.0000	26.9671
1327.0000	26.9543
1326.0000	26.925
1325.0000	26.8661
1324.0000	26.7949
1323.0000	26.6982
1322.0000	26.5802
1321.0000	26.4547
1320.0000	26.3193
1319.0000	26.1651
1318.0000	26.0008
1317.0000	25.8169
1316.0000	25.6378
1315.0000	25.4532
1314.0000	25.2588
1313.0000	25.0575
1312.0000	24.8692
1311.0000	24.6678
1310.0000	24.4744
1309.0000	24.2864
1308.0000	24.1002
1307.0000	23.9266
1306.0000	23.7579
1305.0000	23.6051
1304.0000	23.4608
1303.0000	23.3409
1302.0000	23.2194
1301.0000	23.1123
1300.0000	23.0265
1299.0000	22.9478
1298.0000	22.8968
1297.0000	22.8558
1296.0000	22.823
1295.0000	22.8155
1294.0000	22.82
1293.0000	22.8578
1292.0000	22.8949
1291.0000	22.9423
1290.0000	23.0222
1289.0000	23.1329
1288.0000	23.2384
1287.0000	23.3549
1286.0000	23.4947
1285.0000	23.6546
1284.0000	23.8284
1283.0000	24.0075
1282.0000	24.194
1281.0000	24.3914
1280.0000	24.6016
1279.0000	24.804
1278.0000	25.0234
1277.0000	25.2429
1276.0000	25.4584
1275.0000	25.6831
1274.0000	25.8903
1273.0000	26.1026
1272.0000	26.2861
1271.0000	26.4641
1270.0000	26.6319
1269.0000	26.771
1268.0000	26.9033
1267.0000	27.0147
1266.0000	27.103
1265.0000	27.1611
1264.0000	27.193
1263.0000	27.2058
1262.0000	27.1932
1261.0000	27.1484
1260.0000	27.0834
1259.0000	26.9978
1258.0000	26.8915
1257.0000	26.7554
1256.0000	26.6146
1255.0000	26.4344
1254.0000	26.2523
1253.0000	26.0561
1252.0000	25.8432
1251.0000	25.6305
1250.0000	25.3967
1249.0000	25.1778
1248.0000	24.9434
1247.0000	24.7259
1246.0000	24.5063
1245.0000	24.2987
1244.0000	24.1013
1243.0000	23.9204
1242.0000	23.7551
1241.0000	23.5942
1240.0000	23.4513
1239.0000	23.3296
1238.0000	23.2205
1237.0000	23.1314
1236.0000	23.0595
1235.0000	23.0132
1234.0000	22.9819
1233.0000	22.9757
1232.0000	22.992
1231.0000	23.0357
1230.0000	23.0831
1229.0000	23.1656
1228.0000	23.2642
1227.0000	23.3893
1226.0000	23.5116
1225.0000	23.6658
1224.0000	23.8395
1223.0000	24.0261
1222.0000	24.2317
1221.0000	24.4444
1220.0000	24.6762
1219.0000	24.9026
1218.0000	25.1476
1217.0000	25.3788
1216.0000	25.6172
1215.0000	25.8532
1214.0000	26.0748
1213.0000	26.2913
1212.0000	26.4835
1211.0000	26.6665
1210.0000	26.8214
1209.0000	26.9575
1208.0000	27.0654
1207.0000	27.151
1206.0000	27.2016
1205.0000	27.2277
1204.0000	27.2145
1203.0000	27.1788
1202.0000	27.1009
1201.0000	26.9999
1200.0000	27.058
1199.0000	26.9011
1198.0000	26.7124
1197.0000	26.5043
1196.0000	26.2729
1195.0000	26.0289
1194.0000	25.7683
1193.0000	25.509
1192.0000	25.2496
1191.0000	24.9905
1190.0000	24.7385
1189.0000	24.4946
1188.0000	24.2673
1187.0000	24.0494
1186.0000	23.8535
1185.0000	23.6692
1184.0000	23.5086
1183.0000	23.3774
1182.0000	23.2704
1181.0000	23.169
1180.0000	23.0922
1179.0000	23.0555
1178.0000	23.0278
1177.0000	23.0245
1176.0000	23.0465
1175.0000	23.1002
1174.0000	23.1754
1173.0000	23.2781
1172.0000	23.4048
1171.0000	23.5612
1170.0000	23.7377
1169.0000	23.9177
1168.0000	24.1234
1167.0000	24.355
1166.0000	24.5964
1165.0000	24.8361
1164.0000	25.0864
1163.0000	25.358
1162.0000	25.632
1161.0000	25.876
1160.0000	26.1146
1159.0000	26.3429
1158.0000	26.556
1157.0000	26.7406
1156.0000	26.8927
1155.0000	27.0233
1154.0000	27.119
1153.0000	27.1935
1152.0000	27.2199
1151.0000	27.2018
1150.0000	27.1503
1149.0000	27.0684
1148.0000	26.9753
1147.0000	26.8205
1146.0000	26.65
1145.0000	26.4659
1144.0000	26.2617
1143.0000	26.017
1142.0000	25.7668
1141.0000	25.5102
1140.0000	25.2452
1139.0000	24.9697
1138.0000	24.7145
1137.0000	24.4703
1136.0000	24.2319
1135.0000	23.9968
1134.0000	23.7934
1133.0000	23.6037
1132.0000	23.438
1131.0000	23.2922
1130.0000	23.1685
1129.0000	23.075
1128.0000	23.0161
1127.0000	22.9817
1126.0000	22.9859
1125.0000	23.0107
1124.0000	23.0828
1123.0000	23.1881
1122.0000	23.3133
1121.0000	23.4619
1120.0000	23.6426
1119.0000	23.8506
1118.0000	24.0746
1117.0000	24.3229
1116.0000	24.5688
1115.0000	24.8307
1114.0000	25.1101
1113.0000	25.3921
1112.0000	25.6618
1111.0000	25.9299
1110.0000	26.1844
1109.0000	26.4272
1108.0000	26.6381
1107.0000	26.8222
1106.0000	26.9742
1105.0000	27.0883
1104.0000	27.157
1103.0000	27.1946
1102.0000	27.1849
1101.0000	27.1334
1100.0000	27.0317
1099.0000	26.8898
1098.0000	26.7242
1097.0000	26.508
1096.0000	26.2852
1095.0000	26.0398
1094.0000	25.7689
1093.0000	25.4893
1092.0000	25.1988
1091.0000	24.9244
1090.0000	24.6355
1089.0000	24.3725
1088.0000	24.1172
1087.0000	23.89
1086.0000	23.6781
1085.0000	23.495
1084.0000	23.3378
1083.0000	23.2127
1082.0000	23.1167
1081.0000	23.0656
1080.0000	23.045
1079.0000	23.0583
1078.0000	23.1032
1077.0000	23.1849
1076.0000	23.2965
1075.0000	23.4491
1074.0000	23.6219
1073.0000	23.8203
1072.0000	24.0557
1071.0000	24.3079
1070.0000	24.5784
1069.0000	24.8476
1068.0000	25.1245
1067.0000	25.4138
1066.0000	25.7098
1065.0000	25.9822
1064.0000	26.2276
1063.0000	26.4722
1062.0000	26.6636
1061.0000	26.829
1060.0000	26.9245
1059.0000	26.9874
1058.0000	27.0148
1057.0000	26.9802
1056.0000	26.9072
1055.0000	26.7778
1054.0000	26.6187
1053.0000	26.4054
1052.0000	26.1754
1051.0000	25.891
1050.0000	25.6041
1049.0000	25.3043
1048.0000	24.9988
1047.0000	24.7004
1046.0000	24.3868
1045.0000	24.094
1044.0000	23.8309
1043.0000	23.5838
1042.0000	23.3572
1041.0000	23.1762
1040.0000	23.032
1039.0000	22.9383
1038.0000	22.8669
1037.0000	22.8375
1036.0000	22.8543
1035.0000	22.9075
1034.0000	23.0091
1033.0000	23.1325
1032.0000	23.3092
1031.0000	23.5135
1030.0000	23.7431
1029.0000	24.0002
1028.0000	24.2866
1027.0000	24.5749
1026.0000	24.8625
1025.0000	25.149
1024.0000	25.4366
1023.0000	25.7124
1022.0000	25.9368
1021.0000	26.1433
1020.0000	26.2997
1019.0000	26.4212
1018.0000	26.4795
1017.0000	26.486
1016.0000	26.444
1015.0000	26.3622
1014.0000	26.2066
1013.0000	26.0178
1012.0000	25.7692
1011.0000	25.5032
1010.0000	25.1977
1009.0000	24.8739
1008.0000	24.5586
1007.0000	24.2317
1006.0000	23.9057
1005.0000	23.5881
1004.0000	23.3068
1003.0000	23.0482
1002.0000	22.8338
1001.0000	22.6542
1000.0000	22.5314
999.0000	22.4516
998.0000	22.4201
997.0000	22.4389
996.0000	22.4953
995.0000	22.5944
994.0000	22.7372
993.0000	22.9168
992.0000	23.1375
991.0000	23.3929
990.0000	23.6679
989.0000	23.9692
988.0000	24.2606
987.0000	24.5817
986.0000	24.8775
985.0000	25.1543
984.0000	25.4078
983.0000	25.6299
982.0000	25.8022
981.0000	25.9202
980.0000	25.9761
979.0000	25.9782
978.0000	25.9066
977.0000	25.7665
976.0000	25.5854
975.0000	25.3492
974.0000	25.0684
973.0000	24.762
972.0000	24.4267
971.0000	24.0829
970.0000	23.7257
969.0000	23.4017
968.0000	23.0826
967.0000	22.7868
966.0000	22.5375
965.0000	22.3143
964.0000	22.1368
963.0000	21.9983
962.0000	21.9353
961.0000	21.8924
960.0000	21.9117
959.0000	21.9855
958.0000	22.116
957.0000	22.3016
956.0000	22.5006
955.0000	22.7641
954.0000	23.07
953.0000	23.3612
952.0000	23.6593
951.0000	23.9277
950.0000	24.2069
949.0000	24.475
948.0000	24.6835
947.0000	24.8445
946.0000	24.9513
945.0000	25.0014
944.0000	24.9932
943.0000	24.8987
942.0000	24.7303
941.0000	24.5048
940.0000	24.2397
939.0000	23.9042
938.0000	23.5586
937.0000	23.1736
936.0000	22.8095
935.0000	22.4537
934.0000	22.0964
933.0000	21.7785
932.0000	21.4975
931.0000	21.269
930.0000	21.0612
929.0000	20.9038
928.0000	20.8238
927.0000	20.7984
926.0000	20.8249
925.0000	20.896
924.0000	21.0424
923.0000	21.2117
922.0000	21.458
921.0000	21.7144
920.0000	21.9781
919.0000	22.2558
918.0000	22.5223
917.0000	22.8007
916.0000	23.056
915.0000	23.21
914.0000	23.332
913.0000	23.416
912.0000	23.4324
911.0000	23.3534
910.0000	23.1813
909.0000	22.9964
908.0000	22.7153
907.0000	22.3911
906.0000	22.0263
905.0000	21.6333
904.0000	21.2529
903.0000	20.8434
902.0000	20.4846
901.0000	20.1406
900.0000	20.9863
899.0000	20.7561
898.0000	20.564
897.0000	20.411
896.0000	20.3443
895.0000	20.4225
894.0000	20.4764
893.0000	20.556
892.0000	20.685
891.0000	20.9583
890.0000	21.1975
889.0000	21.4975
888.0000	21.7877
887.0000	22.1404
886.0000	22.5234
885.0000	22.8437
884.0000	23.1401
883.0000	23.4151
882.0000	23.6132
881.0000	23.7378
880.0000	23.7804
879.0000	23.7427
878.0000	23.6082
877.0000	23.3873
876.0000	23.1132
875.0000	22.7851
874.0000	22.4286
873.0000	22.0634
872.0000	21.6897
871.0000	21.3563
870.0000	21.0505
869.0000	20.8016
868.0000	20.6146
867.0000	20.49
866.0000	20.4339
865.0000	20.4613
864.0000	20.5491
863.0000	20.7142
862.0000	20.945
861.0000	21.2436
860.0000	21.5886
859.0000	21.9664
858.0000	22.3795
857.0000	22.7793
856.0000	23.1658
855.0000	23.4919
854.0000	23.7611
853.0000	23.9433
852.0000	24.0348
851.0000	24.0231
850.0000	23.8891
849.0000	23.6758
848.0000	23.3722
847.0000	23.0243
846.0000	22.6295
845.0000	22.2186
844.0000	21.8292
843.0000	21.4774
842.0000	21.1671
841.0000	20.9267
840.0000	20.7567
839.0000	20.668
838.0000	20.6751
837.0000	20.7586
836.0000	20.9361
835.0000	21.1861
834.0000	21.5085
833.0000	21.8852
832.0000	22.2945
831.0000	22.7248
830.0000	23.1368
829.0000	23.5214
828.0000	23.8366
827.0000	24.0777
826.0000	24.211
825.0000	24.2379
824.0000	24.142
823.0000	23.9445
822.0000	23.6415
821.0000	23.2797
820.0000	22.8622
819.0000	22.4276
818.0000	22.0065
817.0000	21.6123
816.0000	21.2856
815.0000	21.0354
814.0000	20.8765
813.0000	20.8005
812.0000	20.8316
811.0000	20.9585
810.0000	21.1816
809.0000	21.4878
808.0000	21.8526
807.0000	22.2745
806.0000	22.7144
805.0000	23.1624
804.0000	23.5555
803.0000	23.8814
802.0000	24.1085
801.0000	24.2196
800.0000	24.2007
799.0000	24.0508
798.0000	23.786
797.0000	23.4275
796.0000	23.0127
795.0000	22.5576
794.0000	22.114
793.0000	21.6958
792.0000	21.3464
791.0000	21.0641
790.0000	20.8906
789.0000	20.8188
788.0000	20.8603
787.0000	21.0185
786.0000	21.2705
785.0000	21.6182
784.0000	22.0282
783.0000	22.4813
782.0000	22.9319
781.0000	23.367
780.0000	23.7256
779.0000	23.9915
778.0000	24.1299
777.0000	24.1262
776.0000	23.9964
775.0000	23.7225
774.0000	23.3564
773.0000	22.9144
772.0000	22.4456
771.0000	21.9805
770.0000	21.5593
769.0000	21.2085
768.0000	20.9533
767.0000	20.8108
766.0000	20.7835
765.0000	20.8933
764.0000	21.1067
763.0000	21.4315
762.0000	21.837
761.0000	22.2937
760.0000	22.7694
759.0000	23.2177
758.0000	23.6015
757.0000	23.8664
756.0000	24.0064
755.0000	23.9884
754.0000	23.8216
753.0000	23.5165
752.0000	23.1081
751.0000	22.6423
750.0000	22.1534
749.0000	21.6915
748.0000	21.2907
747.0000	20.9957
746.0000	20.8153
745.0000	20.7694
744.0000	20.8624
743.0000	21.0869
742.0000	21.4275
741.0000	21.8494
740.0000	22.3806
739.0000	22.8557
738.0000	23.3013
737.0000	23.6458
736.0000	23.8688
735.0000	23.9281
734.0000	23.8225
733.0000	23.5577
732.0000	23.1727
731.0000	22.7039
730.0000	22.201
729.0000	21.7245
728.0000	21.3075
727.0000	20.9938
726.0000	20.8068
725.0000	20.7722
724.0000	20.881
723.0000	21.1323
722.0000	21.5
721.0000	21.9601
720.0000	22.461
719.0000	22.9438
718.0000	23.3674
717.0000	23.66
716.0000	23.8081
715.0000	23.7644
714.0000	23.5546
713.0000	23.1893
712.0000	22.7211
711.0000	22.2111
710.0000	21.7077
709.0000	21.275
708.0000	20.9503
707.0000	20.7714
706.0000	20.7506
705.0000	20.9018
704.0000	21.1959
703.0000	21.6196
702.0000	22.1103
701.0000	22.6219
700.0000	23.0927
699.0000	23.4486
698.0000	23.6522
697.0000	23.645
696.0000	23.4536
695.0000	23.0852
694.0000	22.5983
693.0000	22.0508
692.0000	21.5148
691.0000	21.0594
690.0000	20.7311
689.0000	20.5742
688.0000	20.5932
687.0000	20.8019
686.0000	21.1579
685.0000	21.6397
684.0000	22.1724
683.0000	22.6896
682.0000	23.1434
681.0000	23.4327
680.0000	23.5268
679.0000	23.4084
678.0000	23.1056
677.0000	22.6623
676.0000	22.1398
675.0000	21.6026
674.0000	21.1699
673.0000	20.8642
672.0000	20.7348
671.0000	20.7962
670.0000	21.0363
669.0000	21.4424
668.0000	21.9393
667.0000	22.4765
666.0000	22.956
665.0000	23.3192
664.0000	23.489
663.0000	23.4446
662.0000	23.186
661.0000	22.7589
660.0000	22.2382
659.0000	21.701
658.0000	21.2418
657.0000	20.9146
656.0000	20.7833
655.0000	20.8538
654.0000	21.1308
653.0000	21.5639
652.0000	22.0908
651.0000	22.6282
650.0000	23.0771
649.0000	23.364
648.0000	23.417
647.0000	23.2528
646.0000	22.8743
645.0000	22.3764
644.0000	21.8271
643.0000	21.3405
642.0000	20.9854
641.0000	20.8306
640.0000	20.8916
639.0000	21.1618
638.0000	21.6079
637.0000	22.1352
636.0000	22.6659
635.0000	23.0868
634.0000	23.3239
633.0000	23.3181
632.0000	23.0765
631.0000	22.6466
630.0000	22.1106
629.0000	21.58
628.0000	21.1362
627.0000	20.8904
626.0000	20.8559
625.0000	21.064
624.0000	21.4597
623.0000	21.9814
622.0000	22.5234
621.0000	22.9741
620.0000	23.2427
619.0000	23.2586
618.0000	23.0353
617.0000	22.6009
616.0000	22.0704
615.0000	21.542
614.0000	21.1388
613.0000	20.9314
612.0000	20.9681
611.0000	21.2463
610.0000	21.698
609.0000	22.2418
608.0000	22.7433
607.0000	23.0955
606.0000	23.2035
605.0000	23.0577
604.0000	22.6677
603.0000	22.148
602.0000	21.6112
601.0000	21.1892
600.0000	20.9371
599.0000	20.9835
598.0000	21.2683
597.0000	21.7439
596.0000	22.277
595.0000	22.7579
594.0000	23.0372
593.0000	23.0636
592.0000	22.8163
591.0000	22.3731
590.0000	21.836
589.0000	21.3516
588.0000	21.0464
587.0000	20.9883
586.0000	21.2063
585.0000	21.6243
584.0000	22.1516
583.0000	22.6349
582.0000	22.9472
581.0000	23.0007
580.0000	22.7717
579.0000	22.3397
578.0000	21.805
577.0000	21.3453
576.0000	21.0549
575.0000	21.0466
574.0000	21.3006
573.0000	21.7589
572.0000	22.2763
571.0000	22.7056
570.0000	22.9272
569.0000	22.8655
568.0000	22.5389
567.0000	22.049
566.0000	21.5488
565.0000	21.191
564.0000	21.0824
563.0000	21.2584
562.0000	21.6622
561.0000	22.1658
560.0000	22.6025
559.0000	22.8382
558.0000	22.7838
557.0000	22.4696
556.0000	21.9861
555.0000	21.5184
554.0000	21.203
553.0000	21.1678
552.0000	21.4083
551.0000	21.8468
550.0000	22.3256
549.0000	22.6665
548.0000	22.7628
547.0000	22.5664
546.0000	22.1608
545.0000	21.6856
544.0000	21.3249
543.0000	21.2133
542.0000	21.3904
541.0000	21.7836
540.0000	22.2349
539.0000	22.5833
538.0000	22.6777
537.0000	22.5006
536.0000	22.0992
535.0000	21.6521
534.0000	21.3214
533.0000	21.2582
532.0000	21.4726
531.0000	21.8771
530.0000	22.3035
529.0000	22.5739
528.0000	22.5885
527.0000	22.3291
526.0000	21.9159
525.0000	21.5231
524.0000	21.3307
523.0000	21.4124
522.0000	21.7285
521.0000	22.1293
520.0000	22.4553
519.0000	22.5279
518.0000	22.3378
517.0000	21.9697
516.0000	21.5947
515.0000	21.3896
514.0000	21.4511
513.0000	21.7386
512.0000	22.1128
511.0000	22.3816
510.0000	22.4138
509.0000	22.2125
508.0000	21.8662
507.0000	21.5717
506.0000	21.4573
505.0000	21.6033
504.0000	21.9039
503.0000	22.1975
502.0000	22.3258
501.0000	22.2252
500.0000	21.9542
499.0000	21.6586
498.0000	21.5122
497.0000	21.591
496.0000	21.8455
495.0000	22.1152
494.0000	22.2466
493.0000	22.173
492.0000	21.9374
491.0000	21.6826
490.0000	21.5624
489.0000	21.6527
488.0000	21.8675
487.0000	22.0912
486.0000	22.1612
485.0000	22.0662
484.0000	21.8429
483.0000	21.6532
482.0000	21.6141
481.0000	21.7371
480.0000	21.9289
479.0000	22.06
478.0000	22.0451
477.0000	21.8995
476.0000	21.7336
475.0000	21.6506
474.0000	21.7152
473.0000	21.8445
472.0000	21.9511
471.0000	21.964
470.0000	21.8701
469.0000	21.7529
468.0000	21.6795
467.0000	21.7217
466.0000	21.7999
465.0000	21.8739
464.0000	21.8642
463.0000	21.8066
462.0000	21.7395
461.0000	21.7119
460.0000	21.7225
459.0000	21.7382
458.0000	21.7448
457.0000	21.7307
456.0000	21.7239
455.0000	21.7153
454.0000	21.6981
453.0000	21.6538
452.0000	21.6171
451.0000	21.6209
450.0000	21.6652
449.0000	21.7229
448.0000	21.7046
447.0000	21.6328
446.0000	21.5482
445.0000	21.5563
444.0000	21.6521
443.0000	21.7496
442.0000	21.73
441.0000	21.6017
440.0000	21.4888
439.0000	21.5134
438.0000	21.6694
437.0000	21.7729
436.0000	21.699
435.0000	21.5076
434.0000	21.4209
433.0000	21.5437
432.0000	21.752
431.0000	21.7798
430.0000	21.5757
429.0000	21.3757
428.0000	21.4092
427.0000	21.6441
426.0000	21.7464
425.0000	21.5485
424.0000	21.267
423.0000	21.2521
422.0000	21.5026
421.0000	21.6723
420.0000	21.593
419.0000	21.2976
418.0000	21.3037
417.0000	21.603
416.0000	21.7315
415.0000	21.4654
414.0000	21.1648
413.0000	21.2619
412.0000	21.5788
411.0000	21.5625
410.0000	21.1972
409.0000	21.0661
408.0000	21.3438
407.0000	21.5436
406.0000	21.2766
405.0000	21.0152
404.0000	21.207
403.0000	21.4739
402.0000	21.2956
401.0000	21.0164
400.0000	21.1413
399.0000	21.3763
398.0000	21.1991
397.0000	20.9259
396.0000	21.0446
395.0000	21.181
394.0000	20.959
393.0000	20.8111
392.0000	20.9265
391.0000	20.9334
390.0000	20.7552
389.0000	20.7275
388.0000	20.7575
387.0000	20.6749
386.0000	20.5934
385.0000	20.5334
384.0000	20.4972
383.0000	20.4583
382.0000	20.2666
381.0000	20.2576
380.0000	20.2183
379.0000	19.9303
378.0000	19.9611
377.0000	19.7495
376.0000	19.4517
375.0000	19.3186
374.0000	18.7693
373.0000	18.2071
372.0000	17.3072
371.0000	15.9009
370.0000	14.1057
369.0000	11.6434
368.0000	9.08551
367.0000	6.52064
366.0000	4.32656
365.0000	2.52427
364.0000	1.2107
363.0000	0.411029
362.0000	0.0539294
361.0000	-0.0370064
360.0000	-0.0575315
359.0000	-0.0545138
358.0000	-0.0599973
357.0000	-0.0575897
356.0000	-0.0611408
355.0000	-0.0631014
354.0000	-0.0649753
353.0000	-0.0628772
352.0000	-0.0603051
351.0000	-0.0632593
350.0000	-0.0625009
349.0000	-0.0589476
348.0000	-0.0651234
347.0000	-0.0587074
346.0000	-0.0619085
345.0000	-0.0599222
344.0000	-0.0624925
343.0000	-0.0581559
342.0000	-0.0641753
341.0000	-0.058115
340.0000	-0.0632277
339.0000	-0.0595985
338.0000	-0.0599842
337.0000	-0.0557193
336.0000	-0.0617378
335.0000	-0.0565169
334.0000	-0.0578824
333.0000	-0.0541711
332.0000	-0.0617551
331.0000	-0.0585177
330.0000	-0.0633854
329.0000	-0.0579472
328.0000	-0.0640417
327.0000	-0.055665
326.0000	-0.0625128
325.0000	-0.0517955
324.0000	-0.0592781
323.0000	-0.0538789
322.0000	-0.0594369
321.0000	-0.0612117
320.0000	-0.0622458
319.0000	-0.0600328
318.0000	-0.0655267
317.0000	-0.0593392
316.0000	-0.0629192
315.0000	-0.0579416
314.0000	-0.0636772
313.0000	-0.0625639
312.0000	-0.0666543
311.0000	-0.0598941
310.0000	-0.0665192
309.0000	-0.0612665
308.0000	-0.0676106
307.0000	-0.0601366
306.0000	-0.0640256
305.0000	-0.0640479
304.0000	-0.0664343
303.0000	-0.0642852
302.0000	-0.0654395
301.0000	-0.0652214
300.0000	-0.0660204
