TITLE	n-GaN
DATA TYPE	ULTRAVIOLET SPECTRUM
ORIGIN	JASCO
OWNER	
DATE	19/11/20
TIME	15:37:34
SPECTROMETER/DATA SYSTEM	
RESOLUTION	
DELTAX	-1
XUNITS	NANOMETERS
YUNITS	TRANSMITTANCE
FIRSTX	 2500.0000
LASTX	  300.0000
NPOINTS	    2201
FIRSTY	    82.83801
MAXY	    85.64866
MINY	     0.00509
XYDATA
2500.0000	82.838
2499.0000	82.9506
2498.0000	83.0096
2497.0000	83.0963
2496.0000	83.1928
2495.0000	83.3017
2494.0000	83.4492
2493.0000	83.5688
2492.0000	83.7906
2491.0000	83.8345
2490.0000	84.0157
2489.0000	84.0154
2488.0000	84.1077
2487.0000	84.1561
2486.0000	84.2366
2485.0000	84.3858
2484.0000	84.4007
2483.0000	84.5084
2482.0000	84.634
2481.0000	84.627
2480.0000	84.6706
2479.0000	84.7076
2478.0000	84.7803
2477.0000	84.7901
2476.0000	84.7385
2475.0000	84.7057
2474.0000	84.7446
2473.0000	84.721
2472.0000	84.7424
2471.0000	84.7498
2470.0000	84.7243
2469.0000	84.7845
2468.0000	84.7231
2467.0000	84.7279
2466.0000	84.6849
2465.0000	84.7163
2464.0000	84.651
2463.0000	84.6164
2462.0000	84.6032
2461.0000	84.5724
2460.0000	84.4816
2459.0000	84.3794
2458.0000	84.2889
2457.0000	84.2002
2456.0000	84.0376
2455.0000	83.9587
2454.0000	83.898
2453.0000	83.8258
2452.0000	83.6327
2451.0000	83.5444
2450.0000	83.4636
2449.0000	83.3976
2448.0000	83.1802
2447.0000	83.0519
2446.0000	82.9964
2445.0000	82.8873
2444.0000	82.776
2443.0000	82.6666
2442.0000	82.6835
2441.0000	82.468
2440.0000	82.2663
2439.0000	82.1486
2438.0000	81.9205
2437.0000	81.7334
2436.0000	81.4407
2435.0000	81.2177
2434.0000	81.1568
2433.0000	80.8562
2432.0000	80.6729
2431.0000	80.5463
2430.0000	80.3324
2429.0000	80.1888
2428.0000	79.9817
2427.0000	79.85
2426.0000	79.7517
2425.0000	79.4671
2424.0000	79.2735
2423.0000	79.0993
2422.0000	78.9007
2421.0000	78.6695
2420.0000	78.4964
2419.0000	78.3435
2418.0000	78.2014
2417.0000	78.0201
2416.0000	77.7967
2415.0000	77.6606
2414.0000	77.452
2413.0000	77.211
2412.0000	77.0813
2411.0000	76.9235
2410.0000	76.7007
2409.0000	76.4438
2408.0000	76.3284
2407.0000	76.1682
2406.0000	75.9588
2405.0000	75.8003
2404.0000	75.5847
2403.0000	75.4726
2402.0000	75.3179
2401.0000	75.1916
2400.0000	75.0302
2399.0000	74.8647
2398.0000	74.7088
2397.0000	74.5214
2396.0000	74.4646
2395.0000	74.2202
2394.0000	74.0582
2393.0000	73.9337
2392.0000	73.8788
2391.0000	73.6886
2390.0000	73.4936
2389.0000	73.4201
2388.0000	73.3417
2387.0000	73.2088
2386.0000	73.0225
2385.0000	72.9702
2384.0000	72.8892
2383.0000	72.7576
2382.0000	72.6906
2381.0000	72.6654
2380.0000	72.5629
2379.0000	72.4589
2378.0000	72.3424
2377.0000	72.3023
2376.0000	72.2216
2375.0000	72.0462
2374.0000	72.0402
2373.0000	71.9214
2372.0000	71.8379
2371.0000	71.841
2370.0000	71.8488
2369.0000	71.7733
2368.0000	71.7245
2367.0000	71.7566
2366.0000	71.738
2365.0000	71.6298
2364.0000	71.5642
2363.0000	71.5492
2362.0000	71.5721
2361.0000	71.5217
2360.0000	71.5945
2359.0000	71.6218
2358.0000	71.5842
2357.0000	71.5411
2356.0000	71.6374
2355.0000	71.6019
2354.0000	71.6135
2353.0000	71.665
2352.0000	71.8174
2351.0000	71.9185
2350.0000	71.9263
2349.0000	72.0106
2348.0000	72.041
2347.0000	72.0024
2346.0000	72.107
2345.0000	72.1834
2344.0000	72.2644
2343.0000	72.3579
2342.0000	72.4908
2341.0000	72.6338
2340.0000	72.6743
2339.0000	72.8136
2338.0000	72.9252
2337.0000	73.0073
2336.0000	73.1003
2335.0000	73.226
2334.0000	73.4152
2333.0000	73.5348
2332.0000	73.6868
2331.0000	73.87
2330.0000	74.0337
2329.0000	74.138
2328.0000	74.28
2327.0000	74.401
2326.0000	74.5716
2325.0000	74.686
2324.0000	74.86
2323.0000	75.1267
2322.0000	75.3639
2321.0000	75.5421
2320.0000	75.7559
2319.0000	75.9592
2318.0000	76.0823
2317.0000	76.2439
2316.0000	76.3349
2315.0000	76.5462
2314.0000	76.6964
2313.0000	76.902
2312.0000	77.1301
2311.0000	77.3095
2310.0000	77.5163
2309.0000	77.7797
2308.0000	77.9215
2307.0000	78.1444
2306.0000	78.3443
2305.0000	78.5269
2304.0000	78.7287
2303.0000	78.9397
2302.0000	79.1766
2301.0000	79.2736
2300.0000	79.4003
2299.0000	79.6858
2298.0000	79.8761
2297.0000	80.0236
2296.0000	80.2758
2295.0000	80.4726
2294.0000	80.7536
2293.0000	80.9366
2292.0000	81.1852
2291.0000	81.3903
2290.0000	81.5142
2289.0000	81.6583
2288.0000	81.8259
2287.0000	82.0325
2286.0000	82.2232
2285.0000	82.3679
2284.0000	82.5104
2283.0000	82.724
2282.0000	82.9573
2281.0000	83.1877
2280.0000	83.3056
2279.0000	83.436
2278.0000	83.6051
2277.0000	83.7237
2276.0000	83.8847
2275.0000	83.9741
2274.0000	84.0727
2273.0000	84.1886
2272.0000	84.3002
2271.0000	84.3955
2270.0000	84.4972
2269.0000	84.6357
2268.0000	84.6667
2267.0000	84.7346
2266.0000	84.7972
2265.0000	84.8631
2264.0000	84.8751
2263.0000	84.8913
2262.0000	84.9531
2261.0000	84.997
2260.0000	85.012
2259.0000	85.0563
2258.0000	85.0775
2257.0000	85.0986
2256.0000	85.0933
2255.0000	85.1658
2254.0000	85.0586
2253.0000	85.0152
2252.0000	84.9431
2251.0000	84.8208
2250.0000	84.8118
2249.0000	84.6621
2248.0000	84.5227
2247.0000	84.4871
2246.0000	84.3643
2245.0000	84.2972
2244.0000	84.142
2243.0000	83.9756
2242.0000	83.9244
2241.0000	83.7914
2240.0000	83.6215
2239.0000	83.5149
2238.0000	83.3587
2237.0000	83.3158
2236.0000	83.1012
2235.0000	82.9361
2234.0000	82.8351
2233.0000	82.6373
2232.0000	82.4734
2231.0000	82.223
2230.0000	82.0453
2229.0000	81.8599
2228.0000	81.6114
2227.0000	81.2852
2226.0000	81.0997
2225.0000	80.9634
2224.0000	80.6665
2223.0000	80.4311
2222.0000	80.2654
2221.0000	80.0495
2220.0000	79.7962
2219.0000	79.5387
2218.0000	79.3099
2217.0000	79.0701
2216.0000	78.844
2215.0000	78.6173
2214.0000	78.3207
2213.0000	78.1335
2212.0000	77.9202
2211.0000	77.7254
2210.0000	77.499
2209.0000	77.2868
2208.0000	77.0838
2207.0000	76.816
2206.0000	76.5224
2205.0000	76.2512
2204.0000	76.0478
2203.0000	75.8359
2202.0000	75.5747
2201.0000	75.3641
2200.0000	75.1755
2199.0000	75.0003
2198.0000	74.8335
2197.0000	74.5765
2196.0000	74.3592
2195.0000	74.1649
2194.0000	74.0069
2193.0000	73.7948
2192.0000	73.5891
2191.0000	73.36
2190.0000	73.152
2189.0000	73.0098
2188.0000	72.8486
2187.0000	72.7393
2186.0000	72.5452
2185.0000	72.4617
2184.0000	72.3788
2183.0000	72.2426
2182.0000	72.1238
2181.0000	71.965
2180.0000	71.8489
2179.0000	71.6826
2178.0000	71.6253
2177.0000	71.516
2176.0000	71.4707
2175.0000	71.3944
2174.0000	71.3012
2173.0000	71.2822
2172.0000	71.1795
2171.0000	71.1357
2170.0000	71.1074
2169.0000	71.0431
2168.0000	70.9812
2167.0000	70.9346
2166.0000	70.9205
2165.0000	70.8911
2164.0000	70.929
2163.0000	70.9459
2162.0000	70.9217
2161.0000	70.9897
2160.0000	71.0054
2159.0000	71.0467
2158.0000	71.0431
2157.0000	71.0597
2156.0000	71.1376
2155.0000	71.192
2154.0000	71.2695
2153.0000	71.2526
2152.0000	71.4027
2151.0000	71.5166
2150.0000	71.6286
2149.0000	71.7212
2148.0000	71.8164
2147.0000	71.92
2146.0000	72.0504
2145.0000	72.201
2144.0000	72.2784
2143.0000	72.4418
2142.0000	72.6311
2141.0000	72.7834
2140.0000	72.9344
2139.0000	73.0844
2138.0000	73.2198
2137.0000	73.3773
2136.0000	73.5101
2135.0000	73.7512
2134.0000	73.9214
2133.0000	74.106
2132.0000	74.2671
2131.0000	74.5458
2130.0000	74.8075
2129.0000	74.99
2128.0000	75.2251
2127.0000	75.4505
2126.0000	75.6564
2125.0000	75.9332
2124.0000	76.1678
2123.0000	76.3936
2122.0000	76.6172
2121.0000	76.9083
2120.0000	77.1964
2119.0000	77.415
2118.0000	77.5985
2117.0000	77.8282
2116.0000	78.1608
2115.0000	78.4022
2114.0000	78.6135
2113.0000	78.9235
2112.0000	79.2686
2111.0000	79.4837
2110.0000	79.787
2109.0000	80.0002
2108.0000	80.326
2107.0000	80.6228
2106.0000	80.8586
2105.0000	81.11
2104.0000	81.3965
2103.0000	81.6862
2102.0000	81.8993
2101.0000	82.1258
2100.0000	82.3116
2099.0000	82.5469
2098.0000	82.7616
2097.0000	82.9483
2096.0000	83.1677
2095.0000	83.309
2094.0000	83.5224
2093.0000	83.8327
2092.0000	84.0092
2091.0000	84.0929
2090.0000	84.2118
2089.0000	84.4056
2088.0000	84.5279
2087.0000	84.7212
2086.0000	84.7906
2085.0000	84.8775
2084.0000	85.066
2083.0000	85.0955
2082.0000	85.1957
2081.0000	85.3723
2080.0000	85.3777
2079.0000	85.494
2078.0000	85.5136
2077.0000	85.5143
2076.0000	85.6487
2075.0000	85.5583
2074.0000	85.5309
2073.0000	85.5742
2072.0000	85.5278
2071.0000	85.4357
2070.0000	85.3792
2069.0000	85.287
2068.0000	85.2652
2067.0000	85.1186
2066.0000	84.9786
2065.0000	84.9012
2064.0000	84.8433
2063.0000	84.6671
2062.0000	84.5059
2061.0000	84.2971
2060.0000	84.1794
2059.0000	84.0738
2058.0000	83.8001
2057.0000	83.6131
2056.0000	83.4882
2055.0000	83.2445
2054.0000	83.0772
2053.0000	82.8266
2052.0000	82.5687
2051.0000	82.3158
2050.0000	82.032
2049.0000	81.7976
2048.0000	81.5902
2047.0000	81.2625
2046.0000	81.0063
2045.0000	80.8327
2044.0000	80.519
2043.0000	80.2509
2042.0000	79.9445
2041.0000	79.705
2040.0000	79.5576
2039.0000	79.1306
2038.0000	78.8874
2037.0000	78.6533
2036.0000	78.2564
2035.0000	78.0318
2034.0000	77.7393
2033.0000	77.4216
2032.0000	77.2731
2031.0000	76.9193
2030.0000	76.6552
2029.0000	76.4681
2028.0000	76.0922
2027.0000	75.872
2026.0000	75.5989
2025.0000	75.2922
2024.0000	75.1273
2023.0000	74.7869
2022.0000	74.6183
2021.0000	74.3968
2020.0000	74.1602
2019.0000	73.9922
2018.0000	73.7366
2017.0000	73.5119
2016.0000	73.3695
2015.0000	73.1739
2014.0000	72.9828
2013.0000	72.888
2012.0000	72.6424
2011.0000	72.6055
2010.0000	72.3828
2009.0000	72.1586
2008.0000	72.123
2007.0000	71.9137
2006.0000	71.8591
2005.0000	71.7351
2004.0000	71.5435
2003.0000	71.5941
2002.0000	71.4343
2001.0000	71.348
2000.0000	71.3646
1999.0000	71.2764
1998.0000	71.3878
1997.0000	71.2936
1996.0000	71.2591
1995.0000	71.366
1994.0000	71.2596
1993.0000	71.3668
1992.0000	71.3278
1991.0000	71.3077
1990.0000	71.4574
1989.0000	71.4064
1988.0000	71.4347
1987.0000	71.5564
1986.0000	71.5176
1985.0000	71.7063
1984.0000	71.7632
1983.0000	71.8413
1982.0000	72.0866
1981.0000	72.1374
1980.0000	72.3693
1979.0000	72.5087
1978.0000	72.612
1977.0000	72.8953
1976.0000	72.9124
1975.0000	73.1411
1974.0000	73.2756
1973.0000	73.4444
1972.0000	73.7663
1971.0000	73.8195
1970.0000	74.0899
1969.0000	74.379
1968.0000	74.5299
1967.0000	74.8618
1966.0000	74.9987
1965.0000	75.3258
1964.0000	75.635
1963.0000	75.8376
1962.0000	76.1966
1961.0000	76.4122
1960.0000	76.7859
1959.0000	77.0924
1958.0000	77.3005
1957.0000	77.7017
1956.0000	77.9064
1955.0000	78.2515
1954.0000	78.4947
1953.0000	78.7479
1952.0000	79.1131
1951.0000	79.3518
1950.0000	79.6851
1949.0000	79.9714
1948.0000	80.2428
1947.0000	80.654
1946.0000	80.9097
1945.0000	81.2529
1944.0000	81.5288
1943.0000	81.7432
1942.0000	82.05
1941.0000	82.1732
1940.0000	82.4601
1939.0000	82.6038
1938.0000	82.8366
1937.0000	83.0393
1936.0000	83.2729
1935.0000	83.5521
1934.0000	83.7651
1933.0000	84.0127
1932.0000	84.2154
1931.0000	84.3542
1930.0000	84.5063
1929.0000	84.517
1928.0000	84.6113
1927.0000	84.6599
1926.0000	84.8134
1925.0000	84.9366
1924.0000	85.1338
1923.0000	85.2691
1922.0000	85.3813
1921.0000	85.4159
1920.0000	85.4894
1919.0000	85.4329
1918.0000	85.4315
1917.0000	85.4486
1916.0000	85.5071
1915.0000	85.4877
1914.0000	85.3964
1913.0000	85.2118
1912.0000	85.068
1911.0000	84.9843
1910.0000	84.6745
1909.0000	84.3597
1908.0000	84.0308
1907.0000	83.6064
1906.0000	83.2672
1905.0000	82.8328
1904.0000	82.5945
1903.0000	82.4382
1902.0000	82.3651
1901.0000	82.3248
1900.0000	82.0812
1899.0000	81.9149
1898.0000	81.5935
1897.0000	81.3533
1896.0000	80.9998
1895.0000	80.7555
1894.0000	80.5835
1893.0000	80.3219
1892.0000	80.1214
1891.0000	79.739
1890.0000	79.4417
1889.0000	79.0069
1888.0000	78.5635
1887.0000	78.1424
1886.0000	77.7307
1885.0000	77.4767
1884.0000	77.1407
1883.0000	76.9023
1882.0000	76.5428
1881.0000	76.237
1880.0000	75.9107
1879.0000	75.5388
1878.0000	75.1932
1877.0000	74.7271
1876.0000	74.4193
1875.0000	74.0921
1874.0000	73.9012
1873.0000	73.669
1872.0000	73.4698
1871.0000	73.3867
1870.0000	73.1978
1869.0000	73.117
1868.0000	72.9004
1867.0000	72.8075
1866.0000	72.6777
1865.0000	72.5992
1864.0000	72.5714
1863.0000	72.5036
1862.0000	72.4485
1861.0000	72.267
1860.0000	72.0791
1859.0000	71.7981
1858.0000	71.6566
1857.0000	71.5358
1856.0000	71.4504
1855.0000	71.4398
1854.0000	71.4089
1853.0000	71.5158
1852.0000	71.558
1851.0000	71.6264
1850.0000	71.6414
1849.0000	71.645
1848.0000	71.7862
1847.0000	71.8924
1846.0000	72.028
1845.0000	72.2118
1844.0000	72.4344
1843.0000	72.7174
1842.0000	73.0635
1841.0000	73.3561
1840.0000	73.5545
1839.0000	73.5661
1838.0000	73.4712
1837.0000	73.4129
1836.0000	73.3443
1835.0000	73.3371
1834.0000	73.4921
1833.0000	73.7567
1832.0000	74.076
1831.0000	74.4402
1830.0000	74.7311
1829.0000	74.9974
1828.0000	75.2659
1827.0000	75.5284
1826.0000	75.8254
1825.0000	76.1206
1824.0000	76.5454
1823.0000	76.9482
1822.0000	77.28
1821.0000	77.6207
1820.0000	77.9305
1819.0000	78.2097
1818.0000	78.4393
1817.0000	78.6513
1816.0000	78.8906
1815.0000	79.1279
1814.0000	79.4108
1813.0000	79.784
1812.0000	80.1718
1811.0000	80.5252
1810.0000	80.8922
1809.0000	81.2237
1808.0000	81.5909
1807.0000	81.937
1806.0000	82.2182
1805.0000	82.5372
1804.0000	82.833
1803.0000	83.1026
1802.0000	83.4292
1801.0000	83.6654
1800.0000	83.9554
1799.0000	84.147
1798.0000	84.361
1797.0000	84.5449
1796.0000	84.7274
1795.0000	84.8796
1794.0000	85.0551
1793.0000	85.1776
1792.0000	85.2709
1791.0000	85.383
1790.0000	85.4505
1789.0000	85.4472
1788.0000	85.4452
1787.0000	85.4474
1786.0000	85.3731
1785.0000	85.3679
1784.0000	85.2636
1783.0000	85.1537
1782.0000	85.0551
1781.0000	84.8685
1780.0000	84.7255
1779.0000	84.5442
1778.0000	84.3788
1777.0000	84.1731
1776.0000	83.9713
1775.0000	83.7255
1774.0000	83.4825
1773.0000	83.1741
1772.0000	82.8573
1771.0000	82.5423
1770.0000	82.1932
1769.0000	81.8863
1768.0000	81.5198
1767.0000	81.1923
1766.0000	80.8362
1765.0000	80.4585
1764.0000	80.1302
1763.0000	79.7461
1762.0000	79.3521
1761.0000	78.9662
1760.0000	78.6377
1759.0000	78.2647
1758.0000	77.8926
1757.0000	77.4926
1756.0000	77.1306
1755.0000	76.7872
1754.0000	76.3775
1753.0000	76.0537
1752.0000	75.7227
1751.0000	75.3822
1750.0000	75.064
1749.0000	74.7349
1748.0000	74.4053
1747.0000	74.1049
1746.0000	73.7976
1745.0000	73.519
1744.0000	73.247
1743.0000	73.0074
1742.0000	72.7478
1741.0000	72.5438
1740.0000	72.378
1739.0000	72.163
1738.0000	71.9868
1737.0000	71.8108
1736.0000	71.6599
1735.0000	71.5025
1734.0000	71.4129
1733.0000	71.2964
1732.0000	71.1951
1731.0000	71.1292
1730.0000	71.0877
1729.0000	71.0528
1728.0000	71.0301
1727.0000	71.0105
1726.0000	71.0707
1725.0000	71.088
1724.0000	71.1443
1723.0000	71.2336
1722.0000	71.3524
1721.0000	71.4498
1720.0000	71.5533
1719.0000	71.6819
1718.0000	71.8277
1717.0000	71.9524
1716.0000	72.1519
1715.0000	72.3527
1714.0000	72.5942
1713.0000	72.8201
1712.0000	73.0621
1711.0000	73.3368
1710.0000	73.6563
1709.0000	73.9364
1708.0000	74.1907
1707.0000	74.5365
1706.0000	74.8498
1705.0000	75.2125
1704.0000	75.5466
1703.0000	75.8986
1702.0000	76.2886
1701.0000	76.6888
1700.0000	77.048
1699.0000	77.4405
1698.0000	77.8593
1697.0000	78.2371
1696.0000	78.6071
1695.0000	79.0147
1694.0000	79.4579
1693.0000	79.872
1692.0000	80.3104
1691.0000	80.6418
1690.0000	81.0623
1689.0000	81.4387
1688.0000	81.7928
1687.0000	82.1237
1686.0000	82.5012
1685.0000	82.8325
1684.0000	83.1929
1683.0000	83.5062
1682.0000	83.7894
1681.0000	84.06
1680.0000	84.3112
1679.0000	84.5378
1678.0000	84.6982
1677.0000	84.8759
1676.0000	84.9936
1675.0000	85.1812
1674.0000	85.2213
1673.0000	85.3248
1672.0000	85.3522
1671.0000	85.3908
1670.0000	85.3799
1669.0000	85.3362
1668.0000	85.2897
1667.0000	85.2066
1666.0000	85.083
1665.0000	84.9365
1664.0000	84.7895
1663.0000	84.5793
1662.0000	84.35
1661.0000	84.1052
1660.0000	83.886
1659.0000	83.6028
1658.0000	83.2827
1657.0000	82.9918
1656.0000	82.6614
1655.0000	82.287
1654.0000	81.9015
1653.0000	81.4762
1652.0000	81.0579
1651.0000	80.5942
1650.0000	80.192
1649.0000	79.7398
1648.0000	79.3236
1647.0000	78.9037
1646.0000	78.5075
1645.0000	78.1054
1644.0000	77.6872
1643.0000	77.2504
1642.0000	76.8439
1641.0000	76.465
1640.0000	76.0396
1639.0000	75.6422
1638.0000	75.266
1637.0000	74.9049
1636.0000	74.5767
1635.0000	74.2152
1634.0000	73.9285
1633.0000	73.6293
1632.0000	73.3389
1631.0000	73.0855
1630.0000	72.8443
1629.0000	72.6001
1628.0000	72.3908
1627.0000	72.1779
1626.0000	71.9953
1625.0000	71.832
1624.0000	71.68
1623.0000	71.5675
1622.0000	71.498
1621.0000	71.4445
1620.0000	71.4186
1619.0000	71.4249
1618.0000	71.4224
1617.0000	71.4358
1616.0000	71.4541
1615.0000	71.5244
1614.0000	71.563
1613.0000	71.6384
1612.0000	71.7719
1611.0000	71.924
1610.0000	72.1251
1609.0000	72.3615
1608.0000	72.5757
1607.0000	72.8758
1606.0000	73.1813
1605.0000	73.4354
1604.0000	73.7379
1603.0000	74.055
1602.0000	74.4223
1601.0000	74.8863
1600.0000	75.46
1599.0000	76.1761
1598.0000	76.8529
1597.0000	77.4814
1596.0000	77.969
1595.0000	78.3829
1594.0000	78.6408
1593.0000	78.8359
1592.0000	78.9907
1591.0000	79.2005
1590.0000	79.5078
1589.0000	79.8636
1588.0000	80.2866
1587.0000	80.6743
1586.0000	81.099
1585.0000	81.4973
1584.0000	81.9174
1583.0000	82.3116
1582.0000	82.7076
1581.0000	83.0844
1580.0000	83.4118
1579.0000	83.7611
1578.0000	84.0182
1577.0000	84.3159
1576.0000	84.5043
1575.0000	84.69
1574.0000	84.8554
1573.0000	84.9674
1572.0000	85.0652
1571.0000	85.1076
1570.0000	85.1546
1569.0000	85.1381
1568.0000	85.0886
1567.0000	85.0287
1566.0000	84.9181
1565.0000	84.759
1564.0000	84.5566
1563.0000	84.3468
1562.0000	84.1067
1561.0000	83.8377
1560.0000	83.4744
1559.0000	83.1489
1558.0000	82.8048
1557.0000	82.3998
1556.0000	81.9902
1555.0000	81.5434
1554.0000	81.1347
1553.0000	80.6756
1552.0000	80.2292
1551.0000	79.7587
1550.0000	79.2637
1549.0000	78.8313
1548.0000	78.3423
1547.0000	77.8817
1546.0000	77.4017
1545.0000	76.9622
1544.0000	76.522
1543.0000	76.0751
1542.0000	75.586
1541.0000	75.199
1540.0000	74.8123
1539.0000	74.403
1538.0000	74.05
1537.0000	73.7156
1536.0000	73.4089
1535.0000	73.1024
1534.0000	72.7679
1533.0000	72.5382
1532.0000	72.2603
1531.0000	72.0044
1530.0000	71.7857
1529.0000	71.5982
1528.0000	71.4354
1527.0000	71.3499
1526.0000	71.2766
1525.0000	71.2199
1524.0000	71.209
1523.0000	71.192
1522.0000	71.2283
1521.0000	71.2881
1520.0000	71.3798
1519.0000	71.4951
1518.0000	71.6763
1517.0000	71.8703
1516.0000	72.0926
1515.0000	72.3209
1514.0000	72.5723
1513.0000	72.841
1512.0000	73.1445
1511.0000	73.476
1510.0000	73.8204
1509.0000	74.2192
1508.0000	74.6052
1507.0000	75.0095
1506.0000	75.4474
1505.0000	75.8846
1504.0000	76.3764
1503.0000	76.8579
1502.0000	77.3244
1501.0000	77.8253
1500.0000	78.3393
1499.0000	78.8301
1498.0000	79.3105
1497.0000	79.7819
1496.0000	80.2753
1495.0000	80.7962
1494.0000	81.3101
1493.0000	81.7622
1492.0000	82.231
1491.0000	82.6762
1490.0000	83.0869
1489.0000	83.4256
1488.0000	83.7791
1487.0000	84.107
1486.0000	84.3873
1485.0000	84.6686
1484.0000	84.889
1483.0000	85.0743
1482.0000	85.2165
1481.0000	85.3123
1480.0000	85.3471
1479.0000	85.3155
1478.0000	85.2413
1477.0000	85.1557
1476.0000	85.0116
1475.0000	84.8335
1474.0000	84.5951
1473.0000	84.3231
1472.0000	84.0267
1471.0000	83.6843
1470.0000	83.2939
1469.0000	82.8897
1468.0000	82.447
1467.0000	81.9581
1466.0000	81.4907
1465.0000	80.9719
1464.0000	80.4412
1463.0000	79.9258
1462.0000	79.3601
1461.0000	78.8361
1460.0000	78.2769
1459.0000	77.7345
1458.0000	77.2066
1457.0000	76.6611
1456.0000	76.1444
1455.0000	75.616
1454.0000	75.1121
1453.0000	74.6381
1452.0000	74.1959
1451.0000	73.7705
1450.0000	73.3899
1449.0000	73.0536
1448.0000	72.7269
1447.0000	72.3868
1446.0000	72.1164
1445.0000	71.8582
1444.0000	71.6292
1443.0000	71.4064
1442.0000	71.2687
1441.0000	71.1818
1440.0000	71.0886
1439.0000	71.0579
1438.0000	71.0574
1437.0000	71.0529
1436.0000	71.15
1435.0000	71.224
1434.0000	71.3839
1433.0000	71.5469
1432.0000	71.7332
1431.0000	72.0003
1430.0000	72.2528
1429.0000	72.577
1428.0000	72.9162
1427.0000	73.2562
1426.0000	73.6609
1425.0000	74.1116
1424.0000	74.5494
1423.0000	75.0328
1422.0000	75.551
1421.0000	76.0826
1420.0000	76.6238
1419.0000	77.1763
1418.0000	77.7302
1417.0000	78.2994
1416.0000	78.8639
1415.0000	79.4364
1414.0000	80.0372
1413.0000	80.604
1412.0000	81.1817
1411.0000	81.6888
1410.0000	82.2049
1409.0000	82.6935
1408.0000	83.0891
1407.0000	83.504
1406.0000	83.8607
1405.0000	84.2012
1404.0000	84.5055
1403.0000	84.728
1402.0000	84.9451
1401.0000	85.0694
1400.0000	85.0993
1399.0000	85.043
1398.0000	84.9214
1397.0000	84.7568
1396.0000	84.5404
1395.0000	84.2932
1394.0000	84.0415
1393.0000	83.775
1392.0000	83.4731
1391.0000	83.1374
1390.0000	82.7023
1389.0000	82.2157
1388.0000	81.6373
1387.0000	81.1031
1386.0000	80.482
1385.0000	79.8837
1384.0000	79.3074
1383.0000	78.6929
1382.0000	78.1842
1381.0000	77.619
1380.0000	77.0719
1379.0000	76.5349
1378.0000	76.025
1377.0000	75.5588
1376.0000	75.0512
1375.0000	74.5851
1374.0000	74.1143
1373.0000	73.6363
1372.0000	73.1288
1371.0000	72.6858
1370.0000	72.331
1369.0000	72.0658
1368.0000	71.8678
1367.0000	71.6981
1366.0000	71.6593
1365.0000	71.6334
1364.0000	71.6312
1363.0000	71.621
1362.0000	71.6455
1361.0000	71.7227
1360.0000	71.8172
1359.0000	71.9597
1358.0000	72.1332
1357.0000	72.3452
1356.0000	72.536
1355.0000	72.8222
1354.0000	73.1936
1353.0000	73.5333
1352.0000	73.8828
1351.0000	74.346
1350.0000	74.8561
1349.0000	75.3741
1348.0000	75.9368
1347.0000	76.5017
1346.0000	77.1027
1345.0000	77.719
1344.0000	78.3221
1343.0000	78.9375
1342.0000	79.5502
1341.0000	80.1517
1340.0000	80.7397
1339.0000	81.3009
1338.0000	81.8744
1337.0000	82.3768
1336.0000	82.8691
1335.0000	83.3015
1334.0000	83.7124
1333.0000	84.0839
1332.0000	84.352
1331.0000	84.6009
1330.0000	84.7582
1329.0000	84.8716
1328.0000	84.9122
1327.0000	84.8874
1326.0000	84.7926
1325.0000	84.5989
1324.0000	84.39
1323.0000	84.088
1322.0000	83.7167
1321.0000	83.3312
1320.0000	82.8354
1319.0000	82.3501
1318.0000	81.8059
1317.0000	81.2064
1316.0000	80.5986
1315.0000	79.9361
1314.0000	79.2826
1313.0000	78.6458
1312.0000	77.9715
1311.0000	77.3142
1310.0000	76.6715
1309.0000	76.0487
1308.0000	75.4493
1307.0000	74.8647
1306.0000	74.2857
1305.0000	73.7929
1304.0000	73.2922
1303.0000	72.8607
1302.0000	72.4581
1301.0000	72.0838
1300.0000	71.7777
1299.0000	71.522
1298.0000	71.2969
1297.0000	71.1129
1296.0000	71.0172
1295.0000	70.9773
1294.0000	70.9715
1293.0000	71.0601
1292.0000	71.166
1291.0000	71.3677
1290.0000	71.5798
1289.0000	71.8501
1288.0000	72.1731
1287.0000	72.5529
1286.0000	72.9847
1285.0000	73.4648
1284.0000	73.9908
1283.0000	74.5513
1282.0000	75.167
1281.0000	75.7646
1280.0000	76.4154
1279.0000	77.0876
1278.0000	77.7633
1277.0000	78.4871
1276.0000	79.1611
1275.0000	79.8604
1274.0000	80.5447
1273.0000	81.2061
1272.0000	81.8611
1271.0000	82.4404
1270.0000	82.9769
1269.0000	83.4552
1268.0000	83.9182
1267.0000	84.2773
1266.0000	84.5381
1265.0000	84.7511
1264.0000	84.8801
1263.0000	84.9384
1262.0000	84.9138
1261.0000	84.782
1260.0000	84.5935
1259.0000	84.3291
1258.0000	83.9763
1257.0000	83.5422
1256.0000	83.0477
1255.0000	82.4983
1254.0000	81.8789
1253.0000	81.1995
1252.0000	80.5316
1251.0000	79.8254
1250.0000	79.1172
1249.0000	78.3878
1248.0000	77.6626
1247.0000	76.9846
1246.0000	76.2726
1245.0000	75.5957
1244.0000	74.9453
1243.0000	74.3228
1242.0000	73.7412
1241.0000	73.1914
1240.0000	72.7245
1239.0000	72.2936
1238.0000	71.9094
1237.0000	71.5949
1236.0000	71.3647
1235.0000	71.1881
1234.0000	71.0637
1233.0000	71.0242
1232.0000	71.0597
1231.0000	71.1653
1230.0000	71.3073
1229.0000	71.5245
1228.0000	71.8153
1227.0000	72.1537
1226.0000	72.5659
1225.0000	73.057
1224.0000	73.5769
1223.0000	74.1492
1222.0000	74.8073
1221.0000	75.4745
1220.0000	76.1896
1219.0000	76.937
1218.0000	77.699
1217.0000	78.4719
1216.0000	79.2351
1215.0000	79.9799
1214.0000	80.7082
1213.0000	81.3837
1212.0000	82.0533
1211.0000	82.6474
1210.0000	83.1847
1209.0000	83.6797
1208.0000	84.0896
1207.0000	84.41
1206.0000	84.6184
1205.0000	84.7078
1204.0000	84.7016
1203.0000	84.5961
1202.0000	84.3999
1201.0000	84.0959
1200.0000	83.7044
1199.0000	83.2171
1198.0000	82.6817
1197.0000	82.0725
1196.0000	81.3766
1195.0000	80.6474
1194.0000	79.8925
1193.0000	79.1374
1192.0000	78.3425
1191.0000	77.5736
1190.0000	76.7867
1189.0000	76.0623
1188.0000	75.3522
1187.0000	74.6292
1186.0000	73.9779
1185.0000	73.37
1184.0000	72.8478
1183.0000	72.3475
1182.0000	71.9273
1181.0000	71.6081
1180.0000	71.3436
1179.0000	71.1767
1178.0000	71.0483
1177.0000	71.0369
1176.0000	71.1039
1175.0000	71.2798
1174.0000	71.4976
1173.0000	71.7884
1172.0000	72.1824
1171.0000	72.6431
1170.0000	73.1515
1169.0000	73.7423
1168.0000	74.37
1167.0000	75.0914
1166.0000	75.832
1165.0000	76.6318
1164.0000	77.4489
1163.0000	78.3047
1162.0000	79.1306
1161.0000	79.9636
1160.0000	80.7602
1159.0000	81.5314
1158.0000	82.2047
1157.0000	82.8672
1156.0000	83.4037
1155.0000	83.8578
1154.0000	84.21
1153.0000	84.467
1152.0000	84.5998
1151.0000	84.5637
1150.0000	84.4231
1149.0000	84.1903
1148.0000	83.8269
1147.0000	83.3604
1146.0000	82.8136
1145.0000	82.1769
1144.0000	81.4693
1143.0000	80.6819
1142.0000	79.8716
1141.0000	79.0325
1140.0000	78.1719
1139.0000	77.313
1138.0000	76.4635
1137.0000	75.6332
1136.0000	74.8714
1135.0000	74.1305
1134.0000	73.46
1133.0000	72.8398
1132.0000	72.2728
1131.0000	71.8457
1130.0000	71.4752
1129.0000	71.1741
1128.0000	70.9545
1127.0000	70.8293
1126.0000	70.8281
1125.0000	70.9211
1124.0000	71.0826
1123.0000	71.3544
1122.0000	71.752
1121.0000	72.2412
1120.0000	72.8055
1119.0000	73.4492
1118.0000	74.1668
1117.0000	74.9179
1116.0000	75.7285
1115.0000	76.5866
1114.0000	77.4719
1113.0000	78.3602
1112.0000	79.2486
1111.0000	80.1244
1110.0000	80.9933
1109.0000	81.7748
1108.0000	82.5095
1107.0000	83.1131
1106.0000	83.6132
1105.0000	84.0258
1104.0000	84.2822
1103.0000	84.401
1102.0000	84.3866
1101.0000	84.2177
1100.0000	83.9372
1099.0000	83.5206
1098.0000	82.9869
1097.0000	82.3355
1096.0000	81.6046
1095.0000	80.8179
1094.0000	79.9397
1093.0000	79.047
1092.0000	78.116
1091.0000	77.1748
1090.0000	76.2677
1089.0000	75.3518
1088.0000	74.5249
1087.0000	73.7709
1086.0000	73.0485
1085.0000	72.4804
1084.0000	71.956
1083.0000	71.5564
1082.0000	71.2534
1081.0000	71.0552
1080.0000	70.9994
1079.0000	70.9874
1078.0000	71.1284
1077.0000	71.3923
1076.0000	71.7439
1075.0000	72.2131
1074.0000	72.7791
1073.0000	73.4366
1072.0000	74.1893
1071.0000	75.0163
1070.0000	75.9124
1069.0000	76.8288
1068.0000	77.7646
1067.0000	78.7406
1066.0000	79.6948
1065.0000	80.6032
1064.0000	81.4334
1063.0000	82.2059
1062.0000	82.8952
1061.0000	83.4491
1060.0000	83.8543
1059.0000	84.1019
1058.0000	84.1935
1057.0000	84.13
1056.0000	83.8929
1055.0000	83.5131
1054.0000	82.9754
1053.0000	82.3136
1052.0000	81.5215
1051.0000	80.6668
1050.0000	79.7389
1049.0000	78.7559
1048.0000	77.765
1047.0000	76.7674
1046.0000	75.7974
1045.0000	74.8753
1044.0000	74.0145
1043.0000	73.23
1042.0000	72.5342
1041.0000	71.9401
1040.0000	71.4884
1039.0000	71.1952
1038.0000	70.9659
1037.0000	70.9261
1036.0000	70.9992
1035.0000	71.2195
1034.0000	71.5601
1033.0000	72.023
1032.0000	72.5949
1031.0000	73.2943
1030.0000	74.059
1029.0000	74.9397
1028.0000	75.904
1027.0000	76.8756
1026.0000	77.9439
1025.0000	79.0173
1024.0000	80.023
1023.0000	81.0156
1022.0000	81.8764
1021.0000	82.6503
1020.0000	83.2939
1019.0000	83.7015
1018.0000	84.0055
1017.0000	84.0861
1016.0000	84.0033
1015.0000	83.7388
1014.0000	83.2451
1013.0000	82.6134
1012.0000	81.8525
1011.0000	80.9422
1010.0000	79.9624
1009.0000	78.9008
1008.0000	77.8067
1007.0000	76.7487
1006.0000	75.7084
1005.0000	74.6896
1004.0000	73.7307
1003.0000	72.9122
1002.0000	72.2072
1001.0000	71.6403
1000.0000	71.2059
999.0000	70.93
998.0000	70.8656
997.0000	70.9235
996.0000	71.1078
995.0000	71.4475
994.0000	71.9595
993.0000	72.5512
992.0000	73.3229
991.0000	74.208
990.0000	75.1934
989.0000	76.2748
988.0000	77.3534
987.0000	78.4838
986.0000	79.5816
985.0000	80.5985
984.0000	81.5282
983.0000	82.3334
982.0000	83.0379
981.0000	83.5282
980.0000	83.8104
979.0000	83.9099
978.0000	83.7441
977.0000	83.3838
976.0000	82.7912
975.0000	82.061
974.0000	81.1369
973.0000	80.128
972.0000	79.0116
971.0000	77.8986
970.0000	76.7333
969.0000	75.595
968.0000	74.5446
967.0000	73.5884
966.0000	72.7618
965.0000	72.0599
964.0000	71.5275
963.0000	71.1791
962.0000	70.9944
961.0000	70.9536
960.0000	71.1191
959.0000	71.4467
958.0000	72.0147
957.0000	72.6856
956.0000	73.5108
955.0000	74.4638
954.0000	75.55
953.0000	76.6947
952.0000	77.8577
951.0000	79.0225
950.0000	80.1477
949.0000	81.1876
948.0000	82.0849
947.0000	82.8051
946.0000	83.3174
945.0000	83.6049
944.0000	83.6544
943.0000	83.4125
942.0000	82.9802
941.0000	82.2998
940.0000	81.4411
939.0000	80.414
938.0000	79.3241
937.0000	78.1586
936.0000	76.9825
935.0000	75.8551
934.0000	74.7085
933.0000	73.6874
932.0000	72.734
931.0000	71.9928
930.0000	71.3971
929.0000	70.9584
928.0000	70.8017
927.0000	70.8138
926.0000	71.0434
925.0000	71.4729
924.0000	72.1513
923.0000	72.9359
922.0000	73.925
921.0000	75.0107
920.0000	76.1822
919.0000	77.4925
918.0000	78.7177
917.0000	79.9445
916.0000	81.0445
915.0000	81.9891
914.0000	82.7439
913.0000	83.2407
912.0000	83.466
911.0000	83.4761
910.0000	83.2295
909.0000	82.5807
908.0000	81.7636
907.0000	80.7506
906.0000	79.6245
905.0000	78.3528
904.0000	77.0193
903.0000	75.7478
902.0000	74.5586
901.0000	73.5237
900.0000	74.2281
899.0000	73.2123
898.0000	72.7254
897.0000	72.2508
896.0000	71.7806
895.0000	71.6196
894.0000	71.6742
893.0000	71.93
892.0000	72.1879
891.0000	72.787
890.0000	73.5331
889.0000	74.4873
888.0000	75.6609
887.0000	76.9225
886.0000	78.3583
885.0000	79.7821
884.0000	80.9812
883.0000	82.0224
882.0000	82.7932
881.0000	83.4188
880.0000	83.5333
879.0000	83.3729
878.0000	82.9154
877.0000	82.119
876.0000	81.1554
875.0000	79.9836
874.0000	78.6078
873.0000	77.2174
872.0000	75.8361
871.0000	74.5257
870.0000	73.3539
869.0000	72.385
868.0000	71.6324
867.0000	71.1021
866.0000	70.8185
865.0000	70.817
864.0000	71.1013
863.0000	71.6454
862.0000	72.4576
861.0000	73.4797
860.0000	74.6841
859.0000	76.0543
858.0000	77.4647
857.0000	78.8982
856.0000	80.2524
855.0000	81.475
854.0000	82.4455
853.0000	83.1275
852.0000	83.4202
851.0000	83.3374
850.0000	82.8932
849.0000	82.0972
848.0000	81.0114
847.0000	79.723
846.0000	78.2757
845.0000	76.8116
844.0000	75.3535
843.0000	74.0227
842.0000	72.836
841.0000	71.8343
840.0000	71.1491
839.0000	70.725
838.0000	70.6283
837.0000	70.8427
836.0000	71.4169
835.0000	72.2648
834.0000	73.3773
833.0000	74.7038
832.0000	76.1827
831.0000	77.719
830.0000	79.197
829.0000	80.562
828.0000	81.7148
827.0000	82.597
826.0000	83.1153
825.0000	83.2081
824.0000	82.9155
823.0000	82.2445
822.0000	81.2277
821.0000	79.9108
820.0000	78.4391
819.0000	76.8559
818.0000	75.3451
817.0000	73.9103
816.0000	72.6911
815.0000	71.7074
814.0000	71.0482
813.0000	70.7462
812.0000	70.7517
811.0000	71.1241
810.0000	71.8414
809.0000	72.8876
808.0000	74.1885
807.0000	75.7056
806.0000	77.2841
805.0000	78.8685
804.0000	80.3269
803.0000	81.5555
802.0000	82.4378
801.0000	82.8898
800.0000	82.9147
799.0000	82.4228
798.0000	81.5371
797.0000	80.2918
796.0000	78.7881
795.0000	77.181
794.0000	75.534
793.0000	74.0336
792.0000	72.6969
791.0000	71.6826
790.0000	70.976
789.0000	70.6832
788.0000	70.791
787.0000	71.2936
786.0000	72.1855
785.0000	73.3861
784.0000	74.8551
783.0000	76.4783
782.0000	78.1324
781.0000	79.7057
780.0000	81.0571
779.0000	82.0704
778.0000	82.6448
777.0000	82.7158
776.0000	82.2732
775.0000	81.3564
774.0000	80.0611
773.0000	78.506
772.0000	76.8324
771.0000	75.1305
770.0000	73.5903
769.0000	72.3065
768.0000	71.3537
767.0000	70.7866
766.0000	70.6555
765.0000	70.9632
764.0000	71.6982
763.0000	72.8424
762.0000	74.2699
761.0000	75.9376
760.0000	77.6916
759.0000	79.3628
758.0000	80.8145
757.0000	81.8756
756.0000	82.4545
755.0000	82.4695
754.0000	81.9136
753.0000	80.8456
752.0000	79.3788
751.0000	77.682
750.0000	75.9302
749.0000	74.2281
748.0000	72.7721
747.0000	71.6698
746.0000	70.9985
745.0000	70.7832
744.0000	71.0554
743.0000	71.8437
742.0000	73.0326
741.0000	74.5569
740.0000	76.2667
739.0000	78.0604
738.0000	79.7005
737.0000	81.0515
736.0000	81.9221
735.0000	82.1997
734.0000	81.8756
733.0000	80.9604
732.0000	79.5933
731.0000	77.8921
730.0000	76.0822
729.0000	74.3047
728.0000	72.7736
727.0000	71.5947
726.0000	70.887
725.0000	70.6804
724.0000	71.035
723.0000	71.918
722.0000	73.2214
721.0000	74.8957
720.0000	76.7263
719.0000	78.5617
718.0000	80.1633
717.0000	81.3404
716.0000	81.9535
715.0000	81.8822
714.0000	81.162
713.0000	79.8548
712.0000	78.1758
711.0000	76.2766
710.0000	74.4325
709.0000	72.8011
708.0000	71.5791
707.0000	70.8766
706.0000	70.7424
705.0000	71.2178
704.0000	72.2527
703.0000	73.7711
702.0000	75.5711
701.0000	77.4922
700.0000	79.2658
699.0000	80.6776
698.0000	81.4963
697.0000	81.6339
696.0000	81.0372
695.0000	79.8052
694.0000	78.1219
693.0000	76.1977
692.0000	74.3262
691.0000	72.6798
690.0000	71.5051
689.0000	70.9091
688.0000	70.9694
687.0000	71.6814
686.0000	72.9556
685.0000	74.6713
684.0000	76.5883
683.0000	78.49
682.0000	80.0781
681.0000	81.1203
680.0000	81.4312
679.0000	80.9724
678.0000	79.8084
677.0000	78.1272
676.0000	76.1766
675.0000	74.2057
674.0000	72.5547
673.0000	71.3761
672.0000	70.8464
671.0000	71.013
670.0000	71.8778
669.0000	73.3284
668.0000	75.1706
667.0000	77.1664
666.0000	78.9994
665.0000	80.3878
664.0000	81.0535
663.0000	80.9156
662.0000	79.9776
661.0000	78.4087
660.0000	76.4644
659.0000	74.4522
658.0000	72.717
657.0000	71.4816
656.0000	70.952
655.0000	71.1765
654.0000	72.1505
653.0000	73.734
652.0000	75.6832
651.0000	77.6862
650.0000	79.3883
649.0000	80.502
648.0000	80.7818
647.0000	80.1933
646.0000	78.8086
645.0000	76.9447
644.0000	74.8969
643.0000	73.0296
642.0000	71.6712
641.0000	71.0162
640.0000	71.2035
639.0000	72.1819
638.0000	73.8093
637.0000	75.7939
636.0000	77.806
635.0000	79.4269
634.0000	80.3602
633.0000	80.3992
632.0000	79.5283
631.0000	77.9389
630.0000	75.9107
629.0000	73.8955
628.0000	72.2215
627.0000	71.2205
626.0000	71.053
625.0000	71.7544
624.0000	73.2171
623.0000	75.1467
622.0000	77.201
621.0000	78.9288
620.0000	79.9846
619.0000	80.1079
618.0000	79.2952
617.0000	77.6934
616.0000	75.676
615.0000	73.663
614.0000	72.077
613.0000	71.25
612.0000	71.3313
611.0000	72.3237
610.0000	74.0003
609.0000	76.0411
608.0000	77.9505
607.0000	79.3115
606.0000	79.7676
605.0000	79.2287
604.0000	77.8091
603.0000	75.8417
602.0000	73.8047
601.0000	72.1675
600.0000	71.3199
599.0000	71.433
598.0000	72.5052
597.0000	74.2617
596.0000	76.3047
595.0000	78.1097
594.0000	79.2356
593.0000	79.3529
592.0000	78.4328
591.0000	76.7367
590.0000	74.6851
589.0000	72.8154
588.0000	71.5986
587.0000	71.3577
586.0000	72.1166
585.0000	73.7073
584.0000	75.7056
583.0000	77.5763
582.0000	78.7966
581.0000	79.0134
580.0000	78.193
579.0000	76.5297
578.0000	74.522
577.0000	72.694
576.0000	71.5847
575.0000	71.487
574.0000	72.4352
573.0000	74.1634
572.0000	76.1331
571.0000	77.807
570.0000	78.6495
569.0000	78.4343
568.0000	77.2028
567.0000	75.3242
566.0000	73.385
565.0000	71.9663
564.0000	71.5344
563.0000	72.1824
562.0000	73.7301
561.0000	75.6543
560.0000	77.3452
559.0000	78.2575
558.0000	78.0767
557.0000	76.8812
556.0000	75.0368
555.0000	73.196
554.0000	71.9669
553.0000	71.7861
552.0000	72.7049
551.0000	74.3682
550.0000	76.1979
549.0000	77.5067
548.0000	77.8793
547.0000	77.1287
546.0000	75.5351
545.0000	73.6992
544.0000	72.2731
543.0000	71.8315
542.0000	72.4914
541.0000	74.0181
540.0000	75.7789
539.0000	77.1114
538.0000	77.5105
537.0000	76.8173
536.0000	75.2855
535.0000	73.5105
534.0000	72.2182
533.0000	71.9189
532.0000	72.743
531.0000	74.2839
530.0000	75.9245
529.0000	76.9762
528.0000	77.0236
527.0000	76.0456
526.0000	74.4278
525.0000	72.8961
524.0000	72.1196
523.0000	72.4226
522.0000	73.6425
521.0000	75.1971
520.0000	76.3973
519.0000	76.6552
518.0000	75.904
517.0000	74.437
516.0000	72.9535
515.0000	72.1666
514.0000	72.4394
513.0000	73.6053
512.0000	75.0418
511.0000	76.0695
510.0000	76.1752
509.0000	75.3557
508.0000	74.0002
507.0000	72.7921
506.0000	72.3848
505.0000	72.9661
504.0000	74.1768
503.0000	75.3065
502.0000	75.7714
501.0000	75.3278
500.0000	74.2339
499.0000	73.0636
498.0000	72.4826
497.0000	72.8262
496.0000	73.817
495.0000	74.8693
494.0000	75.3607
493.0000	75.022
492.0000	74.0768
491.0000	73.0522
490.0000	72.6131
489.0000	72.9617
488.0000	73.8472
487.0000	74.688
486.0000	74.9632
485.0000	74.5185
484.0000	73.6362
483.0000	72.8824
482.0000	72.7412
481.0000	73.2615
480.0000	74.0151
479.0000	74.5032
478.0000	74.4128
477.0000	73.8158
476.0000	73.1286
475.0000	72.8147
474.0000	73.069
473.0000	73.6055
472.0000	73.9999
471.0000	74.007
470.0000	73.6208
469.0000	73.1447
468.0000	72.8956
467.0000	73.037
466.0000	73.3826
465.0000	73.6263
464.0000	73.6018
463.0000	73.351
462.0000	73.111
461.0000	73.0171
460.0000	73.0888
459.0000	73.1777
458.0000	73.2101
457.0000	73.1748
456.0000	73.1536
455.0000	73.1533
454.0000	73.0874
453.0000	72.9364
452.0000	72.7661
451.0000	72.7702
450.0000	72.9664
449.0000	73.1692
448.0000	73.0867
447.0000	72.7258
446.0000	72.393
445.0000	72.3896
444.0000	72.7891
443.0000	73.1481
442.0000	73.0326
441.0000	72.4388
440.0000	71.954
439.0000	72.0918
438.0000	72.7053
437.0000	73.1057
436.0000	72.7077
435.0000	71.8939
434.0000	71.519
433.0000	72.0499
432.0000	72.8862
431.0000	72.932
430.0000	72.0372
429.0000	71.2011
428.0000	71.4433
427.0000	72.4916
426.0000	72.9506
425.0000	72.0983
424.0000	70.9585
423.0000	70.9987
422.0000	72.1757
421.0000	72.8487
420.0000	71.9096
419.0000	70.6187
418.0000	70.6767
417.0000	72.0185
416.0000	72.5845
415.0000	71.3738
414.0000	70.1494
413.0000	70.679
412.0000	72.1195
411.0000	71.9908
410.0000	70.3708
409.0000	69.8273
408.0000	71.1329
407.0000	71.915
406.0000	70.6201
405.0000	69.4416
404.0000	70.3424
403.0000	71.4586
402.0000	70.5579
401.0000	69.326
400.0000	69.9795
399.0000	71.0343
398.0000	70.1934
397.0000	69.0308
396.0000	69.6967
395.0000	70.3277
394.0000	69.3135
393.0000	68.6875
392.0000	69.3282
391.0000	69.3305
390.0000	68.5271
389.0000	68.4539
388.0000	68.6514
387.0000	68.2516
386.0000	67.9349
385.0000	67.7225
384.0000	67.6408
383.0000	67.4787
382.0000	66.7213
381.0000	66.803
380.0000	66.688
379.0000	65.5322
378.0000	65.7986
377.0000	65.0029
376.0000	63.9092
375.0000	63.5121
374.0000	61.563
373.0000	59.6001
372.0000	56.6087
371.0000	51.7513
370.0000	45.7431
369.0000	37.6256
368.0000	29.2868
367.0000	20.899
366.0000	13.8554
365.0000	8.02513
364.0000	3.84966
363.0000	1.34909
362.0000	0.297545
361.0000	0.0493002
360.0000	0.0208875
359.0000	0.0162088
358.0000	0.0131892
357.0000	0.011216
356.0000	0.00933112
355.0000	0.00809935
354.0000	0.00725501
353.0000	0.00659287
352.0000	0.00612638
351.0000	0.00584072
350.0000	0.00527862
349.0000	0.00565849
348.0000	0.00508791
347.0000	0.00584873
346.0000	0.00593979
345.0000	0.00565975
344.0000	0.00612958
343.0000	0.00593827
342.0000	0.00632028
341.0000	0.0054671
340.0000	0.0283104
339.0000	0.0263561
338.0000	0.0255066
337.0000	0.0238021
336.0000	0.0242102
335.0000	0.0228138
334.0000	0.0220912
333.0000	0.0213466
332.0000	0.020704
331.0000	0.0201579
330.0000	0.0193206
329.0000	0.0191997
328.0000	0.0195975
327.0000	0.0200122
326.0000	0.0199978
325.0000	0.0192697
324.0000	0.0190357
323.0000	0.0179767
322.0000	0.0173479
321.0000	0.0160745
320.0000	0.0147191
319.0000	0.0139776
318.0000	0.0136644
317.0000	0.0138835
316.0000	0.0136689
315.0000	0.0135574
314.0000	0.0134425
313.0000	0.01354
312.0000	0.0132103
311.0000	0.0122663
310.0000	0.0116304
309.0000	0.0109888
308.0000	0.0111046
307.0000	0.0106673
306.0000	0.00994418
305.0000	0.00992966
304.0000	0.0102366
303.0000	0.0106524
302.0000	0.0100165
301.0000	0.00991508
300.0000	0.00958933
