TITLE	13.1_NP_0
DATA TYPE	ULTRAVIOLET SPECTRUM
ORIGIN	JASCO
OWNER	
DATE	21/04/29
TIME	12:18:51
SPECTROMETER/DATA SYSTEM	
RESOLUTION	
DELTAX	-0.05
XUNITS	NANOMETERS
YUNITS	TRANSMITTANCE
FIRSTX	  550.0000
LASTX	  350.0000
NPOINTS	    4001
FIRSTY	    75.37814
MAXY	    78.53323
MINY	     0.00300
XYDATA
550.0000	75.3781
549.9500	75.4041
549.9000	75.4273
549.8500	75.4522
549.8000	75.4755
549.7500	75.4977
549.7000	75.515
549.6500	75.5332
549.6000	75.5471
549.5500	75.5611
549.5000	75.5746
549.4500	75.5856
549.4000	75.5921
549.3500	75.6007
549.3000	75.6065
549.2500	75.6093
549.2000	75.6111
549.1500	75.6124
549.1000	75.612
549.0500	75.6111
549.0000	75.6047
548.9500	75.6
548.9000	75.5928
548.8500	75.5857
548.8000	75.5724
548.7500	75.5589
548.7000	75.5461
548.6500	75.5288
548.6000	75.5102
548.5500	75.4882
548.5000	75.4694
548.4500	75.4505
548.4000	75.4293
548.3500	75.4053
548.3000	75.3795
548.2500	75.3524
548.2000	75.3215
548.1500	75.2917
548.1000	75.2628
548.0500	75.2323
548.0000	75.1949
547.9500	75.1592
547.9000	75.1212
547.8500	75.08
547.8000	75.0427
547.7500	75.0015
547.7000	74.9605
547.6500	74.9216
547.6000	74.8799
547.5500	74.8337
547.5000	74.7894
547.4500	74.7452
547.4000	74.7001
547.3500	74.6489
547.3000	74.6019
547.2500	74.5507
547.2000	74.5027
547.1500	74.4542
547.1000	74.4029
547.0500	74.3508
547.0000	74.3005
546.9500	74.2496
546.9000	74.1996
546.8500	74.1469
546.8000	74.0935
546.7500	74.0388
546.7000	73.9847
546.6500	73.9332
546.6000	73.8796
546.5500	73.8251
546.5000	73.7721
546.4500	73.7186
546.4000	73.671
546.3500	73.6181
546.3000	73.5654
546.2500	73.5168
546.2000	73.4642
546.1500	73.4123
546.1000	73.3605
546.0500	73.3068
546.0000	73.2582
545.9500	73.2083
545.9000	73.1572
545.8500	73.1085
545.8000	73.0631
545.7500	73.0182
545.7000	72.9712
545.6500	72.9249
545.6000	72.8808
545.5500	72.8348
545.5000	72.7915
545.4500	72.7518
545.4000	72.7136
545.3500	72.6711
545.3000	72.6315
545.2500	72.5921
545.2000	72.5563
545.1500	72.5235
545.1000	72.4895
545.0500	72.4572
545.0000	72.4269
544.9500	72.3967
544.9000	72.3693
544.8500	72.3401
544.8000	72.3129
544.7500	72.2866
544.7000	72.2661
544.6500	72.2435
544.6000	72.2244
544.5500	72.207
544.5000	72.1924
544.4500	72.1758
544.4000	72.1625
544.3500	72.1521
544.3000	72.1432
544.2500	72.1303
544.2000	72.1188
544.1500	72.1112
544.1000	72.1082
544.0500	72.1063
544.0000	72.1063
543.9500	72.108
543.9000	72.113
543.8500	72.1162
543.8000	72.1199
543.7500	72.1268
543.7000	72.1337
543.6500	72.1407
543.6000	72.1535
543.5500	72.1634
543.5000	72.1794
543.4500	72.1923
543.4000	72.2087
543.3500	72.2249
543.3000	72.2426
543.2500	72.2646
543.2000	72.2882
543.1500	72.3155
543.1000	72.338
543.0500	72.3626
543.0000	72.3902
542.9500	72.4171
542.9000	72.445
542.8500	72.4772
542.8000	72.5091
542.7500	72.5402
542.7000	72.5753
542.6500	72.6111
542.6000	72.6478
542.5500	72.6868
542.5000	72.7233
542.4500	72.7619
542.4000	72.8017
542.3500	72.8442
542.3000	72.8829
542.2500	72.9231
542.2000	72.963
542.1500	73.0058
542.1000	73.0504
542.0500	73.0964
542.0000	73.1395
541.9500	73.1863
541.9000	73.2311
541.8500	73.2783
541.8000	73.3211
541.7500	73.3692
541.7000	73.4153
541.6500	73.4617
541.6000	73.5062
541.5500	73.5515
541.5000	73.6022
541.4500	73.6507
541.4000	73.6965
541.3500	73.7419
541.3000	73.789
541.2500	73.8355
541.2000	73.8816
541.1500	73.9297
541.1000	73.9714
541.0500	74.019
541.0000	74.0643
540.9500	74.1089
540.9000	74.1509
540.8500	74.1974
540.8000	74.2415
540.7500	74.2784
540.7000	74.3212
540.6500	74.3612
540.6000	74.4035
540.5500	74.4415
540.5000	74.4794
540.4500	74.5127
540.4000	74.5482
540.3500	74.5842
540.3000	74.6155
540.2500	74.6494
540.2000	74.6852
540.1500	74.7172
540.1000	74.7448
540.0500	74.7714
540.0000	74.8017
539.9500	74.8256
539.9000	74.845
539.8500	74.8687
539.8000	74.8901
539.7500	74.9158
539.7000	74.9332
539.6500	74.9487
539.6000	74.9635
539.5500	74.9789
539.5000	74.9945
539.4500	75.0055
539.4000	75.0144
539.3500	75.0235
539.3000	75.0315
539.2500	75.0333
539.2000	75.0346
539.1500	75.0369
539.1000	75.0363
539.0500	75.0377
539.0000	75.0346
538.9500	75.033
538.9000	75.0277
538.8500	75.0241
538.8000	75.0164
538.7500	75.0066
538.7000	74.9973
538.6500	74.9805
538.6000	74.9651
538.5500	74.9473
538.5000	74.9304
538.4500	74.9096
538.4000	74.8867
538.3500	74.864
538.3000	74.8419
538.2500	74.8162
538.2000	74.7902
538.1500	74.7598
538.1000	74.7324
538.0500	74.7042
538.0000	74.6746
537.9500	74.6407
537.9000	74.6061
537.8500	74.5673
537.8000	74.5338
537.7500	74.4943
537.7000	74.4573
537.6500	74.4204
537.6000	74.3835
537.5500	74.3441
537.5000	74.3025
537.4500	74.2619
537.4000	74.2184
537.3500	74.1756
537.3000	74.1303
537.2500	74.0858
537.2000	74.0395
537.1500	73.9902
537.1000	73.9435
537.0500	73.901
537.0000	73.8535
536.9500	73.8067
536.9000	73.7624
536.8500	73.7184
536.8000	73.6719
536.7500	73.6252
536.7000	73.5788
536.6500	73.5305
536.6000	73.4831
536.5500	73.4342
536.5000	73.385
536.4500	73.3371
536.4000	73.2885
536.3500	73.2433
536.3000	73.2004
536.2500	73.1594
536.2000	73.1117
536.1500	73.0698
536.1000	73.0251
536.0500	72.9795
536.0000	72.934
535.9500	72.8901
535.9000	72.8492
535.8500	72.803
535.8000	72.7645
535.7500	72.7267
535.7000	72.6877
535.6500	72.6531
535.6000	72.6167
535.5500	72.5833
535.5000	72.5502
535.4500	72.5165
535.4000	72.483
535.3500	72.4504
535.3000	72.4198
535.2500	72.3888
535.2000	72.3595
535.1500	72.3323
535.1000	72.306
535.0500	72.2797
535.0000	72.2574
534.9500	72.2363
534.9000	72.2168
534.8500	72.1994
534.8000	72.1822
534.7500	72.1647
534.7000	72.1482
534.6500	72.1325
534.6000	72.1219
534.5500	72.1107
534.5000	72.1024
534.4500	72.0949
534.4000	72.092
534.3500	72.0855
534.3000	72.084
534.2500	72.0845
534.2000	72.0839
534.1500	72.0832
534.1000	72.0873
534.0500	72.0891
534.0000	72.0959
533.9500	72.1043
533.9000	72.1115
533.8500	72.1204
533.8000	72.1338
533.7500	72.1488
533.7000	72.164
533.6500	72.1791
533.6000	72.1975
533.5500	72.2187
533.5000	72.2399
533.4500	72.2652
533.4000	72.2878
533.3500	72.3111
533.3000	72.3362
533.2500	72.3628
533.2000	72.3905
533.1500	72.4173
533.1000	72.4473
533.0500	72.4774
533.0000	72.5127
532.9500	72.5444
532.9000	72.5773
532.8500	72.6127
532.8000	72.6465
532.7500	72.6867
532.7000	72.7227
532.6500	72.759
532.6000	72.7961
532.5500	72.8369
532.5000	72.8768
532.4500	72.9161
532.4000	72.9568
532.3500	72.9977
532.3000	73.0409
532.2500	73.0815
532.2000	73.1221
532.1500	73.1653
532.1000	73.2065
532.0500	73.2519
532.0000	73.2949
531.9500	73.3388
531.9000	73.3819
531.8500	73.4249
531.8000	73.466
531.7500	73.5109
531.7000	73.5513
531.6500	73.5966
531.6000	73.644
531.5500	73.6895
531.5000	73.7306
531.4500	73.7736
531.4000	73.8131
531.3500	73.8551
531.3000	73.8964
531.2500	73.9371
531.2000	73.9739
531.1500	74.0129
531.1000	74.051
531.0500	74.0949
531.0000	74.1326
530.9500	74.1685
530.9000	74.2016
530.8500	74.2392
530.8000	74.2738
530.7500	74.3071
530.7000	74.3394
530.6500	74.3733
530.6000	74.4071
530.5500	74.4361
530.5000	74.4639
530.4500	74.4909
530.4000	74.5181
530.3500	74.5417
530.3000	74.5649
530.2500	74.5883
530.2000	74.6118
530.1500	74.6336
530.1000	74.6549
530.0500	74.6702
530.0000	74.6818
529.9500	74.6989
529.9000	74.7126
529.8500	74.7261
529.8000	74.7377
529.7500	74.7494
529.7000	74.7571
529.6500	74.7633
529.6000	74.7723
529.5500	74.7795
529.5000	74.7834
529.4500	74.7816
529.4000	74.7804
529.3500	74.7796
529.3000	74.7801
529.2500	74.7753
529.2000	74.7693
529.1500	74.7608
529.1000	74.7524
529.0500	74.742
529.0000	74.729
528.9500	74.7166
528.9000	74.7017
528.8500	74.6861
528.8000	74.6702
528.7500	74.6551
528.7000	74.6374
528.6500	74.6168
528.6000	74.596
528.5500	74.5729
528.5000	74.5466
528.4500	74.5221
528.4000	74.4962
528.3500	74.4657
528.3000	74.4398
528.2500	74.41
528.2000	74.3803
528.1500	74.347
528.1000	74.3155
528.0500	74.2843
528.0000	74.2489
527.9500	74.2119
527.9000	74.1775
527.8500	74.1405
527.8000	74.1056
527.7500	74.0684
527.7000	74.0296
527.6500	73.9907
527.6000	73.9533
527.5500	73.9142
527.5000	73.8755
527.4500	73.8359
527.4000	73.7962
527.3500	73.756
527.3000	73.7192
527.2500	73.6776
527.2000	73.635
527.1500	73.5936
527.1000	73.5519
527.0500	73.5091
527.0000	73.4692
526.9500	73.4276
526.9000	73.3918
526.8500	73.3498
526.8000	73.3105
526.7500	73.2724
526.7000	73.2314
526.6500	73.1963
526.6000	73.1573
526.5500	73.1212
526.5000	73.0846
526.4500	73.0487
526.4000	73.0135
526.3500	72.9792
526.3000	72.9426
526.2500	72.9089
526.2000	72.8786
526.1500	72.846
526.1000	72.8168
526.0500	72.7885
526.0000	72.759
525.9500	72.7313
525.9000	72.7029
525.8500	72.676
525.8000	72.6519
525.7500	72.6304
525.7000	72.6055
525.6500	72.5847
525.6000	72.5661
525.5500	72.5438
525.5000	72.5247
525.4500	72.51
525.4000	72.4939
525.3500	72.4799
525.3000	72.4693
525.2500	72.46
525.2000	72.4529
525.1500	72.4443
525.1000	72.439
525.0500	72.4312
525.0000	72.429
524.9500	72.4261
524.9000	72.4258
524.8500	72.4236
524.8000	72.4242
524.7500	72.4274
524.7000	72.4342
524.6500	72.4421
524.6000	72.449
524.5500	72.4578
524.5000	72.4674
524.4500	72.4789
524.4000	72.4918
524.3500	72.5082
524.3000	72.5245
524.2500	72.5424
524.2000	72.56
524.1500	72.5761
524.1000	72.5971
524.0500	72.6191
524.0000	72.6397
523.9500	72.6667
523.9000	72.6935
523.8500	72.7212
523.8000	72.7508
523.7500	72.7796
523.7000	72.8084
523.6500	72.84
523.6000	72.8693
523.5500	72.904
523.5000	72.9373
523.4500	72.9726
523.4000	73.0074
523.3500	73.04
523.3000	73.0768
523.2500	73.1151
523.2000	73.1533
523.1500	73.1916
523.1000	73.2279
523.0500	73.2677
523.0000	73.3059
522.9500	73.3475
522.9000	73.3851
522.8500	73.4242
522.8000	73.4663
522.7500	73.5064
522.7000	73.5477
522.6500	73.589
522.6000	73.6289
522.5500	73.6711
522.5000	73.7137
522.4500	73.7573
522.4000	73.8
522.3500	73.8419
522.3000	73.8841
522.2500	73.9236
522.2000	73.9639
522.1500	74.0064
522.1000	74.0472
522.0500	74.0813
522.0000	74.1218
521.9500	74.1585
521.9000	74.1961
521.8500	74.2349
521.8000	74.2706
521.7500	74.3083
521.7000	74.3446
521.6500	74.3771
521.6000	74.4118
521.5500	74.444
521.5000	74.4755
521.4500	74.5055
521.4000	74.5373
521.3500	74.5663
521.3000	74.5977
521.2500	74.6243
521.2000	74.6488
521.1500	74.6728
521.1000	74.6968
521.0500	74.7224
521.0000	74.7452
520.9500	74.7668
520.9000	74.7871
520.8500	74.8074
520.8000	74.8238
520.7500	74.8374
520.7000	74.8503
520.6500	74.8629
520.6000	74.8772
520.5500	74.887
520.5000	74.8929
520.4500	74.9056
520.4000	74.9124
520.3500	74.9182
520.3000	74.9242
520.2500	74.9242
520.2000	74.9245
520.1500	74.9267
520.1000	74.9217
520.0500	74.9226
520.0000	74.9092
519.9500	74.9051
519.9000	74.8995
519.8500	74.8934
519.8000	74.8854
519.7500	74.8729
519.7000	74.8628
519.6500	74.8479
519.6000	74.8361
519.5500	74.8191
519.5000	74.8034
519.4500	74.7787
519.4000	74.7625
519.3500	74.7382
519.3000	74.7168
519.2500	74.6953
519.2000	74.6689
519.1500	74.6411
519.1000	74.6175
519.0500	74.5899
519.0000	74.5617
518.9500	74.5348
518.9000	74.5085
518.8500	74.4779
518.8000	74.4487
518.7500	74.4166
518.7000	74.389
518.6500	74.3577
518.6000	74.3255
518.5500	74.2949
518.5000	74.2613
518.4500	74.2274
518.4000	74.1968
518.3500	74.1591
518.3000	74.1268
518.2500	74.0927
518.2000	74.0567
518.1500	74.0241
518.1000	73.9898
518.0500	73.9535
518.0000	73.918
517.9500	73.8816
517.9000	73.8497
517.8500	73.8199
517.8000	73.7861
517.7500	73.7553
517.7000	73.7249
517.6500	73.6914
517.6000	73.6656
517.5500	73.6345
517.5000	73.6036
517.4500	73.5758
517.4000	73.5487
517.3500	73.5176
517.3000	73.4891
517.2500	73.4623
517.2000	73.4356
517.1500	73.4142
517.1000	73.3881
517.0500	73.3674
517.0000	73.3435
516.9500	73.3235
516.9000	73.3008
516.8500	73.2822
516.8000	73.2631
516.7500	73.2477
516.7000	73.2294
516.6500	73.2127
516.6000	73.199
516.5500	73.1833
516.5000	73.1716
516.4500	73.1624
516.4000	73.1485
516.3500	73.1435
516.3000	73.1356
516.2500	73.1278
516.2000	73.1239
516.1500	73.1197
516.1000	73.1144
516.0500	73.1151
516.0000	73.1115
515.9500	73.1146
515.9000	73.1136
515.8500	73.1173
515.8000	73.1212
515.7500	73.1286
515.7000	73.1345
515.6500	73.1441
515.6000	73.1525
515.5500	73.1608
515.5000	73.1709
515.4500	73.1806
515.4000	73.198
515.3500	73.211
515.3000	73.2275
515.2500	73.2467
515.2000	73.2644
515.1500	73.2844
515.1000	73.3049
515.0500	73.3285
515.0000	73.3516
514.9500	73.3746
514.9000	73.4001
514.8500	73.4269
514.8000	73.4542
514.7500	73.4793
514.7000	73.5067
514.6500	73.5358
514.6000	73.5628
514.5500	73.5917
514.5000	73.6232
514.4500	73.6559
514.4000	73.686
514.3500	73.7183
514.3000	73.7532
514.2500	73.7867
514.2000	73.8199
514.1500	73.8525
514.1000	73.8883
514.0500	73.9191
514.0000	73.9536
513.9500	73.9904
513.9000	74.0289
513.8500	74.0665
513.8000	74.0991
513.7500	74.1339
513.7000	74.171
513.6500	74.2047
513.6000	74.2396
513.5500	74.2747
513.5000	74.3117
513.4500	74.3444
513.4000	74.3786
513.3500	74.4172
513.3000	74.4523
513.2500	74.4863
513.2000	74.5238
513.1500	74.5627
513.1000	74.5962
513.0500	74.6323
513.0000	74.668
512.9500	74.7024
512.9000	74.7334
512.8500	74.7646
512.8000	74.7983
512.7500	74.829
512.7000	74.861
512.6500	74.8882
512.6000	74.9165
512.5500	74.9459
512.5000	74.9727
512.4500	75.0035
512.4000	75.0304
512.3500	75.0548
512.3000	75.0754
512.2500	75.0985
512.2000	75.1209
512.1500	75.1416
512.1000	75.159
512.0500	75.1796
512.0000	75.1977
511.9500	75.2155
511.9000	75.2323
511.8500	75.2486
511.8000	75.2624
511.7500	75.275
511.7000	75.2864
511.6500	75.2947
511.6000	75.3032
511.5500	75.3098
511.5000	75.3162
511.4500	75.3209
511.4000	75.3231
511.3500	75.3266
511.3000	75.3296
511.2500	75.3282
511.2000	75.324
511.1500	75.3214
511.1000	75.3147
511.0500	75.3113
511.0000	75.3069
510.9500	75.3006
510.9000	75.2892
510.8500	75.2806
510.8000	75.2738
510.7500	75.2629
510.7000	75.2533
510.6500	75.2419
510.6000	75.2259
510.5500	75.2097
510.5000	75.198
510.4500	75.1789
510.4000	75.1598
510.3500	75.1398
510.3000	75.12
510.2500	75.1007
510.2000	75.0756
510.1500	75.0555
510.1000	75.0335
510.0500	75.0114
510.0000	74.9856
509.9500	74.9622
509.9000	74.9379
509.8500	74.9128
509.8000	74.8892
509.7500	74.8609
509.7000	74.834
509.6500	74.8087
509.6000	74.7838
509.5500	74.7562
509.5000	74.7333
509.4500	74.7054
509.4000	74.6765
509.3500	74.6482
509.3000	74.6242
509.2500	74.5964
509.2000	74.567
509.1500	74.5416
509.1000	74.5144
509.0500	74.4851
509.0000	74.463
508.9500	74.4406
508.9000	74.4112
508.8500	74.3871
508.8000	74.366
508.7500	74.3416
508.7000	74.3176
508.6500	74.2947
508.6000	74.2776
508.5500	74.2559
508.5000	74.2333
508.4500	74.2148
508.4000	74.1989
508.3500	74.1814
508.3000	74.1642
508.2500	74.1466
508.2000	74.1316
508.1500	74.1157
508.1000	74.1021
508.0500	74.0873
508.0000	74.0763
507.9500	74.0678
507.9000	74.0561
507.8500	74.0485
507.8000	74.0407
507.7500	74.0353
507.7000	74.0307
507.6500	74.027
507.6000	74.0255
507.5500	74.0212
507.5000	74.0219
507.4500	74.0215
507.4000	74.0218
507.3500	74.0232
507.3000	74.0298
507.2500	74.0364
507.2000	74.04
507.1500	74.0494
507.1000	74.0576
507.0500	74.0664
507.0000	74.0799
506.9500	74.0916
506.9000	74.1048
506.8500	74.116
506.8000	74.13
506.7500	74.1426
506.7000	74.1562
506.6500	74.1736
506.6000	74.1911
506.5500	74.2137
506.5000	74.2351
506.4500	74.2575
506.4000	74.2785
506.3500	74.2996
506.3000	74.3221
506.2500	74.3463
506.2000	74.3736
506.1500	74.4004
506.1000	74.425
506.0500	74.4504
506.0000	74.4757
505.9500	74.5018
505.9000	74.5299
505.8500	74.5615
505.8000	74.5888
505.7500	74.6196
505.7000	74.6499
505.6500	74.6785
505.6000	74.7119
505.5500	74.741
505.5000	74.7754
505.4500	74.8106
505.4000	74.8398
505.3500	74.8705
505.3000	74.903
505.2500	74.9356
505.2000	74.967
505.1500	75.0005
505.1000	75.0355
505.0500	75.0698
505.0000	75.1035
504.9500	75.1372
504.9000	75.168
504.8500	75.2003
504.8000	75.2306
504.7500	75.2666
504.7000	75.2986
504.6500	75.3298
504.6000	75.3586
504.5500	75.3902
504.5000	75.4195
504.4500	75.4509
504.4000	75.4793
504.3500	75.5107
504.3000	75.5395
504.2500	75.5661
504.2000	75.5951
504.1500	75.6188
504.1000	75.6424
504.0500	75.6695
504.0000	75.6916
503.9500	75.7174
503.9000	75.7336
503.8500	75.7518
503.8000	75.7722
503.7500	75.7908
503.7000	75.8091
503.6500	75.8249
503.6000	75.8437
503.5500	75.8565
503.5000	75.8734
503.4500	75.884
503.4000	75.8952
503.3500	75.9056
503.3000	75.9184
503.2500	75.9266
503.2000	75.9369
503.1500	75.9403
503.1000	75.9457
503.0500	75.9493
503.0000	75.9559
502.9500	75.9559
502.9000	75.9588
502.8500	75.9562
502.8000	75.9579
502.7500	75.9571
502.7000	75.954
502.6500	75.9473
502.6000	75.9436
502.5500	75.9405
502.5000	75.9345
502.4500	75.9267
502.4000	75.9191
502.3500	75.9131
502.3000	75.9066
502.2500	75.8957
502.2000	75.8844
502.1500	75.8738
502.1000	75.8612
502.0500	75.8495
502.0000	75.8334
501.9500	75.8195
501.9000	75.8014
501.8500	75.7887
501.8000	75.7742
501.7500	75.7588
501.7000	75.7403
501.6500	75.7247
501.6000	75.7047
501.5500	75.687
501.5000	75.6692
501.4500	75.6511
501.4000	75.6317
501.3500	75.6138
501.3000	75.594
501.2500	75.5737
501.2000	75.5554
501.1500	75.5372
501.1000	75.5158
501.0500	75.5003
501.0000	75.4781
500.9500	75.4579
500.9000	75.4407
500.8500	75.423
500.8000	75.4051
500.7500	75.3806
500.7000	75.3646
500.6500	75.3456
500.6000	75.3276
500.5500	75.31
500.5000	75.2922
500.4500	75.2801
500.4000	75.2685
500.3500	75.2555
500.3000	75.2394
500.2500	75.222
500.2000	75.2061
500.1500	75.1893
500.1000	75.1775
500.0500	75.1656
500.0000	75.1591
499.9500	75.149
499.9000	75.1385
499.8500	75.1294
499.8000	75.1213
499.7500	75.1133
499.7000	75.1082
499.6500	75.1064
499.6000	75.1059
499.5500	75.1025
499.5000	75.1027
499.4500	75.0986
499.4000	75.1011
499.3500	75.1033
499.3000	75.1034
499.2500	75.1041
499.2000	75.1063
499.1500	75.1122
499.1000	75.1165
499.0500	75.1256
499.0000	75.1344
498.9500	75.1414
498.9000	75.1512
498.8500	75.1602
498.8000	75.1664
498.7500	75.1775
498.7000	75.1902
498.6500	75.2062
498.6000	75.2218
498.5500	75.2383
498.5000	75.2565
498.4500	75.2725
498.4000	75.2873
498.3500	75.3057
498.3000	75.3256
498.2500	75.3462
498.2000	75.3657
498.1500	75.3881
498.1000	75.411
498.0500	75.4304
498.0000	75.4475
497.9500	75.4682
497.9000	75.4901
497.8500	75.5149
497.8000	75.5401
497.7500	75.5656
497.7000	75.5917
497.6500	75.6211
497.6000	75.6468
497.5500	75.6726
497.5000	75.6984
497.4500	75.7217
497.4000	75.748
497.3500	75.7758
497.3000	75.8033
497.2500	75.8331
497.2000	75.8608
497.1500	75.8882
497.1000	75.9184
497.0500	75.9478
497.0000	75.9765
496.9500	76.0044
496.9000	76.0285
496.8500	76.056
496.8000	76.0847
496.7500	76.1094
496.7000	76.1378
496.6500	76.1654
496.6000	76.191
496.5500	76.2187
496.5000	76.2461
496.4500	76.2744
496.4000	76.2998
496.3500	76.3244
496.3000	76.351
496.2500	76.3778
496.2000	76.4023
496.1500	76.4209
496.1000	76.4437
496.0500	76.4603
496.0000	76.4843
495.9500	76.5037
495.9000	76.5225
495.8500	76.5441
495.8000	76.5609
495.7500	76.5796
495.7000	76.5948
495.6500	76.6052
495.6000	76.6202
495.5500	76.6347
495.5000	76.6483
495.4500	76.6588
495.4000	76.6665
495.3500	76.6754
495.3000	76.6842
495.2500	76.6948
495.2000	76.7027
495.1500	76.7131
495.1000	76.72
495.0500	76.7241
495.0000	76.7321
494.9500	76.7326
494.9000	76.7317
494.8500	76.7297
494.8000	76.73
494.7500	76.73
494.7000	76.7271
494.6500	76.7248
494.6000	76.7225
494.5500	76.7221
494.5000	76.7169
494.4500	76.7172
494.4000	76.7106
494.3500	76.7061
494.3000	76.7
494.2500	76.6917
494.2000	76.685
494.1500	76.676
494.1000	76.6703
494.0500	76.667
494.0000	76.6599
493.9500	76.6485
493.9000	76.6395
493.8500	76.6252
493.8000	76.6137
493.7500	76.6033
493.7000	76.596
493.6500	76.582
493.6000	76.569
493.5500	76.5538
493.5000	76.5381
493.4500	76.5264
493.4000	76.5116
493.3500	76.5023
493.3000	76.493
493.2500	76.4827
493.2000	76.4696
493.1500	76.4583
493.1000	76.4456
493.0500	76.4327
493.0000	76.4187
492.9500	76.4068
492.9000	76.3932
492.8500	76.3778
492.8000	76.3625
492.7500	76.3491
492.7000	76.3372
492.6500	76.3266
492.6000	76.3167
492.5500	76.3062
492.5000	76.2929
492.4500	76.2787
492.4000	76.2685
492.3500	76.2636
492.3000	76.2522
492.2500	76.2476
492.2000	76.2436
492.1500	76.2354
492.1000	76.226
492.0500	76.2227
492.0000	76.2169
491.9500	76.2123
491.9000	76.21
491.8500	76.206
491.8000	76.2033
491.7500	76.2002
491.7000	76.1981
491.6500	76.2007
491.6000	76.2019
491.5500	76.2047
491.5000	76.2071
491.4500	76.2078
491.4000	76.208
491.3500	76.2148
491.3000	76.2219
491.2500	76.2242
491.2000	76.2299
491.1500	76.2371
491.1000	76.2425
491.0500	76.2544
491.0000	76.2633
490.9500	76.2709
490.9000	76.283
490.8500	76.2965
490.8000	76.3083
490.7500	76.319
490.7000	76.334
490.6500	76.3451
490.6000	76.3579
490.5500	76.3755
490.5000	76.3912
490.4500	76.4085
490.4000	76.4249
490.3500	76.4455
490.3000	76.464
490.2500	76.4826
490.2000	76.5009
490.1500	76.5214
490.1000	76.5417
490.0500	76.5611
490.0000	76.5813
489.9500	76.5972
489.9000	76.6181
489.8500	76.6398
489.8000	76.6619
489.7500	76.6815
489.7000	76.7024
489.6500	76.7288
489.6000	76.7551
489.5500	76.7798
489.5000	76.8047
489.4500	76.8247
489.4000	76.8463
489.3500	76.8709
489.3000	76.8929
489.2500	76.9126
489.2000	76.9347
489.1500	76.9565
489.1000	76.9767
489.0500	77.0026
489.0000	77.0265
488.9500	77.048
488.9000	77.0681
488.8500	77.087
488.8000	77.1091
488.7500	77.1287
488.7000	77.1476
488.6500	77.1688
488.6000	77.1889
488.5500	77.2044
488.5000	77.219
488.4500	77.2356
488.4000	77.2541
488.3500	77.2743
488.3000	77.2895
488.2500	77.3075
488.2000	77.3231
488.1500	77.3353
488.1000	77.3501
488.0500	77.3633
488.0000	77.3737
487.9500	77.3882
487.9000	77.4007
487.8500	77.4124
487.8000	77.4245
487.7500	77.4355
487.7000	77.448
487.6500	77.457
487.6000	77.4655
487.5500	77.4723
487.5000	77.4798
487.4500	77.4859
487.4000	77.4923
487.3500	77.4993
487.3000	77.5009
487.2500	77.5063
487.2000	77.5096
487.1500	77.5114
487.1000	77.5127
487.0500	77.5148
487.0000	77.5159
486.9500	77.5178
486.9000	77.5191
486.8500	77.5175
486.8000	77.516
486.7500	77.5144
486.7000	77.5128
486.6500	77.509
486.6000	77.5057
486.5500	77.5042
486.5000	77.4991
486.4500	77.495
486.4000	77.4913
486.3500	77.4814
486.3000	77.4739
486.2500	77.4676
486.2000	77.4583
486.1500	77.4514
486.1000	77.4411
486.0500	77.432
486.0000	77.4231
485.9500	77.4146
485.9000	77.4049
485.8500	77.3936
485.8000	77.3827
485.7500	77.3732
485.7000	77.3684
485.6500	77.3602
485.6000	77.3501
485.5500	77.341
485.5000	77.3292
485.4500	77.3163
485.4000	77.3064
485.3500	77.2983
485.3000	77.2897
485.2500	77.2818
485.2000	77.273
485.1500	77.2642
485.1000	77.2545
485.0500	77.2482
485.0000	77.2413
484.9500	77.2319
484.9000	77.228
484.8500	77.2169
484.8000	77.2122
484.7500	77.2053
484.7000	77.1997
484.6500	77.194
484.6000	77.1907
484.5500	77.1861
484.5000	77.187
484.4500	77.185
484.4000	77.1825
484.3500	77.1835
484.3000	77.1824
484.2500	77.1823
484.2000	77.1803
484.1500	77.1805
484.1000	77.1827
484.0500	77.1806
484.0000	77.1843
483.9500	77.1891
483.9000	77.1966
483.8500	77.2023
483.8000	77.2033
483.7500	77.2069
483.7000	77.2107
483.6500	77.2165
483.6000	77.2227
483.5500	77.2286
483.5000	77.2383
483.4500	77.2459
483.4000	77.2519
483.3500	77.262
483.3000	77.2693
483.2500	77.2798
483.2000	77.2858
483.1500	77.2994
483.1000	77.3134
483.0500	77.3236
483.0000	77.3369
482.9500	77.3519
482.9000	77.3608
482.8500	77.3754
482.8000	77.3908
482.7500	77.4043
482.7000	77.4223
482.6500	77.4377
482.6000	77.4524
482.5500	77.4641
482.5000	77.4776
482.4500	77.4951
482.4000	77.5095
482.3500	77.524
482.3000	77.5379
482.2500	77.5561
482.2000	77.5748
482.1500	77.5928
482.1000	77.6082
482.0500	77.628
482.0000	77.6424
481.9500	77.6589
481.9000	77.6735
481.8500	77.6891
481.8000	77.7095
481.7500	77.724
481.7000	77.7412
481.6500	77.7584
481.6000	77.7764
481.5500	77.7915
481.5000	77.8106
481.4500	77.8294
481.4000	77.8421
481.3500	77.8533
481.3000	77.871
481.2500	77.8858
481.2000	77.9011
481.1500	77.9127
481.1000	77.9239
481.0500	77.9389
481.0000	77.9528
480.9500	77.9678
480.9000	77.9827
480.8500	77.9938
480.8000	78.0051
480.7500	78.0152
480.7000	78.0259
480.6500	78.0323
480.6000	78.043
480.5500	78.0487
480.5000	78.0619
480.4500	78.0685
480.4000	78.0789
480.3500	78.0888
480.3000	78.0933
480.2500	78.0982
480.2000	78.104
480.1500	78.1128
480.1000	78.115
480.0500	78.1227
480.0000	78.1261
479.9500	78.1343
479.9000	78.134
479.8500	78.133
479.8000	78.1358
479.7500	78.139
479.7000	78.1371
479.6500	78.1377
479.6000	78.135
479.5500	78.1363
479.5000	78.1359
479.4500	78.1346
479.4000	78.1349
479.3500	78.1332
479.3000	78.1306
479.2500	78.1264
479.2000	78.1235
479.1500	78.1191
479.1000	78.1167
479.0500	78.1142
479.0000	78.1109
478.9500	78.1072
478.9000	78.0986
478.8500	78.0926
478.8000	78.0889
478.7500	78.0819
478.7000	78.0783
478.6500	78.0754
478.6000	78.0666
478.5500	78.0588
478.5000	78.0547
478.4500	78.0466
478.4000	78.0437
478.3500	78.034
478.3000	78.0252
478.2500	78.0232
478.2000	78.0167
478.1500	78.0084
478.1000	78.0014
478.0500	77.9974
478.0000	77.9923
477.9500	77.9855
477.9000	77.9788
477.8500	77.9683
477.8000	77.963
477.7500	77.9584
477.7000	77.9505
477.6500	77.9467
477.6000	77.9443
477.5500	77.9414
477.5000	77.9375
477.4500	77.9357
477.4000	77.9295
477.3500	77.9291
477.3000	77.926
477.2500	77.9251
477.2000	77.9213
477.1500	77.9189
477.1000	77.9201
477.0500	77.9151
477.0000	77.9165
476.9500	77.9176
476.9000	77.9148
476.8500	77.9171
476.8000	77.9161
476.7500	77.9194
476.7000	77.92
476.6500	77.9219
476.6000	77.9233
476.5500	77.9305
476.5000	77.9371
476.4500	77.9379
476.4000	77.9413
476.3500	77.9465
476.3000	77.9535
476.2500	77.9606
476.2000	77.9656
476.1500	77.9724
476.1000	77.9811
476.0500	77.9879
476.0000	77.9917
475.9500	78.0011
475.9000	78.0078
475.8500	78.0155
475.8000	78.0245
475.7500	78.034
475.7000	78.0471
475.6500	78.0526
475.6000	78.0613
475.5500	78.0679
475.5000	78.0788
475.4500	78.0899
475.4000	78.1029
475.3500	78.1145
475.3000	78.1267
475.2500	78.1347
475.2000	78.1449
475.1500	78.1564
475.1000	78.17
475.0500	78.1783
475.0000	78.1923
474.9500	78.1995
474.9000	78.2089
474.8500	78.2213
474.8000	78.2348
474.7500	78.2455
474.7000	78.2563
474.6500	78.2714
474.6000	78.2805
474.5500	78.2892
474.5000	78.3004
474.4500	78.3117
474.4000	78.3213
474.3500	78.329
474.3000	78.341
474.2500	78.3463
474.2000	78.3568
474.1500	78.3659
474.1000	78.373
474.0500	78.3837
474.0000	78.3929
473.9500	78.4054
473.9000	78.4113
473.8500	78.4234
473.8000	78.4272
473.7500	78.4338
473.7000	78.4425
473.6500	78.4502
473.6000	78.4569
473.5500	78.4584
473.5000	78.4645
473.4500	78.4684
473.4000	78.4723
473.3500	78.4782
473.3000	78.4812
473.2500	78.4872
473.2000	78.4889
473.1500	78.4933
473.1000	78.494
473.0500	78.4935
473.0000	78.4962
472.9500	78.4965
472.9000	78.4936
472.8500	78.4924
472.8000	78.4953
472.7500	78.4933
472.7000	78.4924
472.6500	78.4961
472.6000	78.4958
472.5500	78.4934
472.5000	78.4906
472.4500	78.4876
472.4000	78.4844
472.3500	78.4821
472.3000	78.4795
472.2500	78.4737
472.2000	78.4702
472.1500	78.4646
472.1000	78.4595
472.0500	78.4548
472.0000	78.4513
471.9500	78.4471
471.9000	78.4424
471.8500	78.4391
471.8000	78.4348
471.7500	78.4299
471.7000	78.4264
471.6500	78.4195
471.6000	78.4152
471.5500	78.4092
471.5000	78.4036
471.4500	78.3992
471.4000	78.3948
471.3500	78.3884
471.3000	78.3853
471.2500	78.3795
471.2000	78.3714
471.1500	78.3672
471.1000	78.3591
471.0500	78.3536
471.0000	78.3465
470.9500	78.3401
470.9000	78.3366
470.8500	78.3362
470.8000	78.3309
470.7500	78.3214
470.7000	78.3166
470.6500	78.3117
470.6000	78.3126
470.5500	78.3082
470.5000	78.3051
470.4500	78.3015
470.4000	78.2988
470.3500	78.2972
470.3000	78.2942
470.2500	78.2942
470.2000	78.2921
470.1500	78.2898
470.1000	78.2862
470.0500	78.2816
470.0000	78.2809
469.9500	78.2781
469.9000	78.276
469.8500	78.2759
469.8000	78.2767
469.7500	78.2808
469.7000	78.2814
469.6500	78.2812
469.6000	78.2858
469.5500	78.2899
469.5000	78.2919
469.4500	78.2962
469.4000	78.2977
469.3500	78.2977
469.3000	78.3013
469.2500	78.3
469.2000	78.3032
469.1500	78.3129
469.1000	78.3192
469.0500	78.32
469.0000	78.3184
468.9500	78.3253
468.9000	78.3259
468.8500	78.3343
468.8000	78.3401
468.7500	78.3462
468.7000	78.3514
468.6500	78.3544
468.6000	78.3581
468.5500	78.3601
468.5000	78.3679
468.4500	78.3759
468.4000	78.38
468.3500	78.3876
468.3000	78.3959
468.2500	78.3994
468.2000	78.4036
468.1500	78.4086
468.1000	78.4139
468.0500	78.4216
468.0000	78.4271
467.9500	78.4309
467.9000	78.4389
467.8500	78.4406
467.8000	78.4454
467.7500	78.455
467.7000	78.4599
467.6500	78.4669
467.6000	78.4739
467.5500	78.478
467.5000	78.4791
467.4500	78.4904
467.4000	78.4927
467.3500	78.4964
467.3000	78.5049
467.2500	78.5044
467.2000	78.5063
467.1500	78.5089
467.1000	78.5115
467.0500	78.5134
467.0000	78.517
466.9500	78.521
466.9000	78.5242
466.8500	78.5271
466.8000	78.5285
466.7500	78.53
466.7000	78.5289
466.6500	78.5309
466.6000	78.5332
466.5500	78.5328
466.5000	78.5311
466.4500	78.5303
466.4000	78.5298
466.3500	78.528
466.3000	78.5245
466.2500	78.5256
466.2000	78.5266
466.1500	78.5253
466.1000	78.5224
466.0500	78.5197
466.0000	78.5178
465.9500	78.5133
465.9000	78.5101
465.8500	78.5007
465.8000	78.4984
465.7500	78.4952
465.7000	78.4915
465.6500	78.492
465.6000	78.4853
465.5500	78.4794
465.5000	78.4746
465.4500	78.4726
465.4000	78.4655
465.3500	78.4591
465.3000	78.4529
465.2500	78.4432
465.2000	78.4374
465.1500	78.4297
465.1000	78.4273
465.0500	78.4227
465.0000	78.4165
464.9500	78.4111
464.9000	78.4056
464.8500	78.4031
464.8000	78.3959
464.7500	78.3926
464.7000	78.3906
464.6500	78.3822
464.6000	78.3737
464.5500	78.3664
464.5000	78.3605
464.4500	78.3503
464.4000	78.3466
464.3500	78.3419
464.3000	78.3391
464.2500	78.3346
464.2000	78.3307
464.1500	78.3241
464.1000	78.3161
464.0500	78.3087
464.0000	78.3025
463.9500	78.2995
463.9000	78.2957
463.8500	78.289
463.8000	78.2856
463.7500	78.2817
463.7000	78.2762
463.6500	78.2754
463.6000	78.2714
463.5500	78.2657
463.5000	78.2627
463.4500	78.2565
463.4000	78.2522
463.3500	78.2484
463.3000	78.2491
463.2500	78.2454
463.2000	78.2431
463.1500	78.2374
463.1000	78.2303
463.0500	78.2305
463.0000	78.229
462.9500	78.223
462.9000	78.2208
462.8500	78.2216
462.8000	78.2151
462.7500	78.216
462.7000	78.2112
462.6500	78.2132
462.6000	78.2137
462.5500	78.2129
462.5000	78.2133
462.4500	78.2082
462.4000	78.2122
462.3500	78.2092
462.3000	78.2087
462.2500	78.2063
462.2000	78.2059
462.1500	78.206
462.1000	78.2054
462.0500	78.2049
462.0000	78.2065
461.9500	78.2121
461.9000	78.2119
461.8500	78.2135
461.8000	78.2149
461.7500	78.2142
461.7000	78.2112
461.6500	78.2092
461.6000	78.2117
461.5500	78.2153
461.5000	78.2166
461.4500	78.2155
461.4000	78.2195
461.3500	78.2249
461.3000	78.2252
461.2500	78.2277
461.2000	78.2315
461.1500	78.2266
461.1000	78.2294
461.0500	78.2276
461.0000	78.2214
460.9500	78.223
460.9000	78.2224
460.8500	78.2232
460.8000	78.2222
460.7500	78.2218
460.7000	78.2211
460.6500	78.2263
460.6000	78.2257
460.5500	78.2247
460.5000	78.2231
460.4500	78.2222
460.4000	78.2207
460.3500	78.2168
460.3000	78.2122
460.2500	78.2102
460.2000	78.2075
460.1500	78.2078
460.1000	78.204
460.0500	78.2029
460.0000	78.1957
459.9500	78.1882
459.9000	78.1885
459.8500	78.1833
459.8000	78.1761
459.7500	78.1699
459.7000	78.1643
459.6500	78.1576
459.6000	78.1484
459.5500	78.1447
459.5000	78.1393
459.4500	78.1343
459.4000	78.1333
459.3500	78.1244
459.3000	78.1187
459.2500	78.1129
459.2000	78.1039
459.1500	78.0961
459.1000	78.0908
459.0500	78.0789
459.0000	78.073
458.9500	78.0682
458.9000	78.0622
458.8500	78.056
458.8000	78.0512
458.7500	78.0469
458.7000	78.0398
458.6500	78.0332
458.6000	78.0278
458.5500	78.016
458.5000	78.0115
458.4500	78.0035
458.4000	77.9971
458.3500	77.9916
458.3000	77.9823
458.2500	77.9754
458.2000	77.9696
458.1500	77.9633
458.1000	77.9554
458.0500	77.9487
458.0000	77.9435
457.9500	77.9348
457.9000	77.928
457.8500	77.9198
457.8000	77.9116
457.7500	77.9058
457.7000	77.8993
457.6500	77.8925
457.6000	77.8862
457.5500	77.8801
457.5000	77.8717
457.4500	77.862
457.4000	77.857
457.3500	77.849
457.3000	77.841
457.2500	77.8301
457.2000	77.8203
457.1500	77.8108
457.1000	77.8047
457.0500	77.7982
457.0000	77.7887
456.9500	77.7827
456.9000	77.7764
456.8500	77.7687
456.8000	77.7646
456.7500	77.7592
456.7000	77.7514
456.6500	77.7468
456.6000	77.7412
456.5500	77.7335
456.5000	77.7302
456.4500	77.7235
456.4000	77.7195
456.3500	77.7154
456.3000	77.7095
456.2500	77.7048
456.2000	77.6992
456.1500	77.6936
456.1000	77.6891
456.0500	77.6819
456.0000	77.6799
455.9500	77.6773
455.9000	77.6695
455.8500	77.671
455.8000	77.6616
455.7500	77.6609
455.7000	77.6575
455.6500	77.6514
455.6000	77.6456
455.5500	77.638
455.5000	77.6317
455.4500	77.6292
455.4000	77.6245
455.3500	77.6235
455.3000	77.6179
455.2500	77.6157
455.2000	77.6089
455.1500	77.6057
455.1000	77.6006
455.0500	77.5955
455.0000	77.5915
454.9500	77.5887
454.9000	77.5835
454.8500	77.5776
454.8000	77.5688
454.7500	77.5643
454.7000	77.5609
454.6500	77.5536
454.6000	77.5485
454.5500	77.5439
454.5000	77.5361
454.4500	77.5358
454.4000	77.5279
454.3500	77.5225
454.3000	77.5211
454.2500	77.5131
454.2000	77.5083
454.1500	77.5006
454.1000	77.4948
454.0500	77.4952
454.0000	77.4887
453.9500	77.483
453.9000	77.4803
453.8500	77.472
453.8000	77.4634
453.7500	77.454
453.7000	77.4488
453.6500	77.4402
453.6000	77.4319
453.5500	77.4243
453.5000	77.4204
453.4500	77.4146
453.4000	77.4025
453.3500	77.3929
453.3000	77.3851
453.2500	77.3795
453.2000	77.3727
453.1500	77.3643
453.1000	77.3543
453.0500	77.3462
453.0000	77.3392
452.9500	77.3333
452.9000	77.329
452.8500	77.3173
452.8000	77.3109
452.7500	77.3022
452.7000	77.291
452.6500	77.2835
452.6000	77.2772
452.5500	77.2686
452.5000	77.2609
452.4500	77.2494
452.4000	77.2412
452.3500	77.237
452.3000	77.2267
452.2500	77.2179
452.2000	77.2104
452.1500	77.2045
452.1000	77.1948
452.0500	77.1854
452.0000	77.176
451.9500	77.1681
451.9000	77.1565
451.8500	77.146
451.8000	77.1411
451.7500	77.1327
451.7000	77.1236
451.6500	77.1121
451.6000	77.1042
451.5500	77.0925
451.5000	77.0829
451.4500	77.0774
451.4000	77.0662
451.3500	77.0548
451.3000	77.0428
451.2500	77.0364
451.2000	77.026
451.1500	77.0166
451.1000	77.0082
451.0500	76.9975
451.0000	76.9878
450.9500	76.9769
450.9000	76.9673
450.8500	76.9546
450.8000	76.9467
450.7500	76.9354
450.7000	76.927
450.6500	76.9156
450.6000	76.9096
450.5500	76.9011
450.5000	76.8909
450.4500	76.8795
450.4000	76.872
450.3500	76.86
450.3000	76.85
450.2500	76.8395
450.2000	76.8291
450.1500	76.8226
450.1000	76.8158
450.0500	76.8105
450.0000	76.8006
449.9500	76.7966
449.9000	76.7868
449.8500	76.7759
449.8000	76.7688
449.7500	76.7596
449.7000	76.7485
449.6500	76.7385
449.6000	76.7286
449.5500	76.7161
449.5000	76.7075
449.4500	76.6986
449.4000	76.6902
449.3500	76.6794
449.3000	76.6681
449.2500	76.6647
449.2000	76.6575
449.1500	76.6482
449.1000	76.6391
449.0500	76.6312
449.0000	76.6203
448.9500	76.6082
448.9000	76.6
448.8500	76.5952
448.8000	76.5869
448.7500	76.5784
448.7000	76.5701
448.6500	76.5615
448.6000	76.5518
448.5500	76.5429
448.5000	76.5317
448.4500	76.516
448.4000	76.5063
448.3500	76.4945
448.3000	76.4874
448.2500	76.4778
448.2000	76.468
448.1500	76.4595
448.1000	76.4498
448.0500	76.4391
448.0000	76.4301
447.9500	76.419
447.9000	76.4104
447.8500	76.3992
447.8000	76.3924
447.7500	76.387
447.7000	76.3793
447.6500	76.3672
447.6000	76.3561
447.5500	76.3455
447.5000	76.3392
447.4500	76.3337
447.4000	76.3213
447.3500	76.3129
447.3000	76.3018
447.2500	76.2866
447.2000	76.277
447.1500	76.2662
447.1000	76.2583
447.0500	76.2481
447.0000	76.2386
446.9500	76.2279
446.9000	76.2176
446.8500	76.2105
446.8000	76.2006
446.7500	76.1889
446.7000	76.18
446.6500	76.172
446.6000	76.1602
446.5500	76.1513
446.5000	76.1431
446.4500	76.1331
446.4000	76.1226
446.3500	76.1158
446.3000	76.1021
446.2500	76.0921
446.2000	76.0782
446.1500	76.0664
446.1000	76.0557
446.0500	76.0423
446.0000	76.0311
445.9500	76.0247
445.9000	76.0123
445.8500	75.9983
445.8000	75.9883
445.7500	75.9784
445.7000	75.9689
445.6500	75.9586
445.6000	75.947
445.5500	75.9385
445.5000	75.9273
445.4500	75.9195
445.4000	75.9098
445.3500	75.895
445.3000	75.8821
445.2500	75.872
445.2000	75.8628
445.1500	75.8541
445.1000	75.8433
445.0500	75.8312
445.0000	75.8232
444.9500	75.8077
444.9000	75.7985
444.8500	75.7888
444.8000	75.7772
444.7500	75.7651
444.7000	75.7579
444.6500	75.745
444.6000	75.7354
444.5500	75.7234
444.5000	75.7107
444.4500	75.7043
444.4000	75.6933
444.3500	75.6809
444.3000	75.6682
444.2500	75.6575
444.2000	75.6506
444.1500	75.6353
444.1000	75.6242
444.0500	75.6179
444.0000	75.6066
443.9500	75.5932
443.9000	75.583
443.8500	75.5679
443.8000	75.5561
443.7500	75.5455
443.7000	75.5363
443.6500	75.5256
443.6000	75.5153
443.5500	75.5049
443.5000	75.4925
443.4500	75.4797
443.4000	75.4657
443.3500	75.4569
443.3000	75.445
443.2500	75.4344
443.2000	75.4251
443.1500	75.4139
443.1000	75.3996
443.0500	75.3904
443.0000	75.3791
442.9500	75.3675
442.9000	75.357
442.8500	75.3429
442.8000	75.3311
442.7500	75.3206
442.7000	75.3079
442.6500	75.2937
442.6000	75.2784
442.5500	75.2685
442.5000	75.2573
442.4500	75.2407
442.4000	75.2313
442.3500	75.2212
442.3000	75.2078
442.2500	75.1992
442.2000	75.1879
442.1500	75.1788
442.1000	75.1671
442.0500	75.1579
442.0000	75.1466
441.9500	75.133
441.9000	75.1197
441.8500	75.1075
441.8000	75.0988
441.7500	75.0866
441.7000	75.0762
441.6500	75.0612
441.6000	75.0474
441.5500	75.0369
441.5000	75.0268
441.4500	75.0173
441.4000	75.0049
441.3500	74.9962
441.3000	74.9837
441.2500	74.972
441.2000	74.9645
441.1500	74.9492
441.1000	74.9366
441.0500	74.9275
441.0000	74.9181
440.9500	74.9066
440.9000	74.896
440.8500	74.8889
440.8000	74.8767
440.7500	74.8674
440.7000	74.8579
440.6500	74.8478
440.6000	74.8367
440.5500	74.8239
440.5000	74.8133
440.4500	74.7988
440.4000	74.784
440.3500	74.7723
440.3000	74.7641
440.2500	74.7566
440.2000	74.7438
440.1500	74.7348
440.1000	74.7194
440.0500	74.7125
440.0000	74.7052
439.9500	74.693
439.9000	74.6824
439.8500	74.6705
439.8000	74.6599
439.7500	74.6448
439.7000	74.634
439.6500	74.6229
439.6000	74.6085
439.5500	74.5996
439.5000	74.5902
439.4500	74.5767
439.4000	74.5657
439.3500	74.5556
439.3000	74.5442
439.2500	74.5318
439.2000	74.5227
439.1500	74.5085
439.1000	74.4969
439.0500	74.4822
439.0000	74.471
438.9500	74.4589
438.9000	74.4479
438.8500	74.4392
438.8000	74.4269
438.7500	74.4162
438.7000	74.4033
438.6500	74.3908
438.6000	74.3783
438.5500	74.3652
438.5000	74.3537
438.4500	74.339
438.4000	74.3224
438.3500	74.3084
438.3000	74.2944
438.2500	74.283
438.2000	74.2687
438.1500	74.2559
438.1000	74.2412
438.0500	74.2297
438.0000	74.2174
437.9500	74.2026
437.9000	74.1905
437.8500	74.1792
437.8000	74.1686
437.7500	74.1567
437.7000	74.1409
437.6500	74.1266
437.6000	74.1127
437.5500	74.101
437.5000	74.0855
437.4500	74.0692
437.4000	74.0542
437.3500	74.04
437.3000	74.0244
437.2500	74.0085
437.2000	73.9987
437.1500	73.9864
437.1000	73.974
437.0500	73.9598
437.0000	73.9486
436.9500	73.9348
436.9000	73.9247
436.8500	73.9123
436.8000	73.8977
436.7500	73.8891
436.7000	73.8762
436.6500	73.8621
436.6000	73.8495
436.5500	73.8364
436.5000	73.8272
436.4500	73.8122
436.4000	73.7974
436.3500	73.7846
436.3000	73.77
436.2500	73.7626
436.2000	73.7462
436.1500	73.735
436.1000	73.7277
436.0500	73.7188
436.0000	73.7056
435.9500	73.6937
435.9000	73.6833
435.8500	73.6743
435.8000	73.6665
435.7500	73.6563
435.7000	73.6469
435.6500	73.6335
435.6000	73.6243
435.5500	73.611
435.5000	73.6
435.4500	73.5878
435.4000	73.5768
435.3500	73.5667
435.3000	73.5541
435.2500	73.543
435.2000	73.5369
435.1500	73.5233
435.1000	73.5162
435.0500	73.5031
435.0000	73.4946
434.9500	73.4855
434.9000	73.4764
434.8500	73.4683
434.8000	73.4607
434.7500	73.4514
434.7000	73.4442
434.6500	73.4292
434.6000	73.4213
434.5500	73.4089
434.5000	73.3976
434.4500	73.3826
434.4000	73.3691
434.3500	73.3576
434.3000	73.3471
434.2500	73.3343
434.2000	73.3196
434.1500	73.3076
434.1000	73.2971
434.0500	73.2881
434.0000	73.2758
433.9500	73.2644
433.9000	73.2497
433.8500	73.2377
433.8000	73.2251
433.7500	73.2106
433.7000	73.201
433.6500	73.1883
433.6000	73.1774
433.5500	73.1625
433.5000	73.1485
433.4500	73.1367
433.4000	73.1224
433.3500	73.1132
433.3000	73.0992
433.2500	73.0852
433.2000	73.0734
433.1500	73.0624
433.1000	73.0494
433.0500	73.0357
433.0000	73.022
432.9500	73.0065
432.9000	72.9948
432.8500	72.9836
432.8000	72.9714
432.7500	72.9592
432.7000	72.9433
432.6500	72.9351
432.6000	72.9226
432.5500	72.9092
432.5000	72.8953
432.4500	72.8845
432.4000	72.8695
432.3500	72.8594
432.3000	72.847
432.2500	72.8355
432.2000	72.8213
432.1500	72.811
432.1000	72.7976
432.0500	72.7835
432.0000	72.7692
431.9500	72.7608
431.9000	72.745
431.8500	72.7364
431.8000	72.7253
431.7500	72.7123
431.7000	72.7023
431.6500	72.6912
431.6000	72.6777
431.5500	72.6643
431.5000	72.6535
431.4500	72.6408
431.4000	72.6305
431.3500	72.6238
431.3000	72.6081
431.2500	72.6011
431.2000	72.5918
431.1500	72.5781
431.1000	72.573
431.0500	72.5618
431.0000	72.5503
430.9500	72.5417
430.9000	72.5331
430.8500	72.5211
430.8000	72.5128
430.7500	72.5033
430.7000	72.4956
430.6500	72.4859
430.6000	72.4795
430.5500	72.4692
430.5000	72.4588
430.4500	72.4513
430.4000	72.4424
430.3500	72.4356
430.3000	72.4315
430.2500	72.4204
430.2000	72.4127
430.1500	72.3992
430.1000	72.3892
430.0500	72.3835
430.0000	72.3763
429.9500	72.3685
429.9000	72.3569
429.8500	72.3494
429.8000	72.3392
429.7500	72.3302
429.7000	72.3217
429.6500	72.3096
429.6000	72.3014
429.5500	72.2937
429.5000	72.2792
429.4500	72.268
429.4000	72.2575
429.3500	72.2463
429.3000	72.2333
429.2500	72.2231
429.2000	72.2111
429.1500	72.2003
429.1000	72.1894
429.0500	72.1792
429.0000	72.17
428.9500	72.1616
428.9000	72.148
428.8500	72.1386
428.8000	72.1307
428.7500	72.1213
428.7000	72.1116
428.6500	72.1013
428.6000	72.0898
428.5500	72.0812
428.5000	72.0679
428.4500	72.0543
428.4000	72.0421
428.3500	72.0292
428.3000	72.0204
428.2500	72.0104
428.2000	71.9991
428.1500	71.9858
428.1000	71.9765
428.0500	71.9668
428.0000	71.9565
427.9500	71.947
427.9000	71.9344
427.8500	71.9258
427.8000	71.9182
427.7500	71.9117
427.7000	71.9039
427.6500	71.8953
427.6000	71.8834
427.5500	71.8747
427.5000	71.8661
427.4500	71.8536
427.4000	71.8385
427.3500	71.8277
427.3000	71.8192
427.2500	71.8057
427.2000	71.7898
427.1500	71.7766
427.1000	71.7646
427.0500	71.7556
427.0000	71.7439
426.9500	71.7293
426.9000	71.7207
426.8500	71.7116
426.8000	71.7007
426.7500	71.6897
426.7000	71.6795
426.6500	71.6714
426.6000	71.6629
426.5500	71.6518
426.5000	71.6433
426.4500	71.6319
426.4000	71.6219
426.3500	71.6142
426.3000	71.6101
426.2500	71.5972
426.2000	71.5882
426.1500	71.5771
426.1000	71.5692
426.0500	71.5586
426.0000	71.5575
425.9500	71.5442
425.9000	71.5357
425.8500	71.5287
425.8000	71.5256
425.7500	71.5186
425.7000	71.5116
425.6500	71.504
425.6000	71.501
425.5500	71.4936
425.5000	71.4862
425.4500	71.4788
425.4000	71.4734
425.3500	71.4687
425.3000	71.4611
425.2500	71.4509
425.2000	71.4433
425.1500	71.4368
425.1000	71.4261
425.0500	71.4157
425.0000	71.407
424.9500	71.4004
424.9000	71.3916
424.8500	71.3826
424.8000	71.3755
424.7500	71.3632
424.7000	71.3541
424.6500	71.3463
424.6000	71.3382
424.5500	71.3301
424.5000	71.3215
424.4500	71.312
424.4000	71.2966
424.3500	71.2922
424.3000	71.2827
424.2500	71.275
424.2000	71.2613
424.1500	71.2519
424.1000	71.2446
424.0500	71.2376
424.0000	71.2251
423.9500	71.2141
423.9000	71.2003
423.8500	71.187
423.8000	71.1755
423.7500	71.1686
423.7000	71.1608
423.6500	71.1508
423.6000	71.1394
423.5500	71.1258
423.5000	71.1193
423.4500	71.111
423.4000	71.099
423.3500	71.0905
423.3000	71.0809
423.2500	71.0685
423.2000	71.053
423.1500	71.0427
423.1000	71.035
423.0500	71.0263
423.0000	71.0155
422.9500	71.0046
422.9000	70.9936
422.8500	70.9832
422.8000	70.9761
422.7500	70.9628
422.7000	70.9521
422.6500	70.9417
422.6000	70.9364
422.5500	70.9258
422.5000	70.9177
422.4500	70.9079
422.4000	70.8997
422.3500	70.8888
422.3000	70.8835
422.2500	70.8732
422.2000	70.8637
422.1500	70.8505
422.1000	70.8381
422.0500	70.8323
422.0000	70.8252
421.9500	70.8184
421.9000	70.8088
421.8500	70.7972
421.8000	70.7907
421.7500	70.7805
421.7000	70.772
421.6500	70.767
421.6000	70.7637
421.5500	70.758
421.5000	70.7474
421.4500	70.7385
421.4000	70.7322
421.3500	70.7279
421.3000	70.7203
421.2500	70.7156
421.2000	70.7122
421.1500	70.709
421.1000	70.7029
421.0500	70.6947
421.0000	70.6875
420.9500	70.6793
420.9000	70.6699
420.8500	70.6658
420.8000	70.6601
420.7500	70.6582
420.7000	70.6539
420.6500	70.6518
420.6000	70.6484
420.5500	70.6459
420.5000	70.6397
420.4500	70.6341
420.4000	70.6297
420.3500	70.6296
420.3000	70.6227
420.2500	70.6195
420.2000	70.6173
420.1500	70.6144
420.1000	70.6092
420.0500	70.6033
420.0000	70.5749
419.9500	70.5732
419.9000	70.5693
419.8500	70.5647
419.8000	70.5568
419.7500	70.5537
419.7000	70.5451
419.6500	70.5372
419.6000	70.5278
419.5500	70.5197
419.5000	70.5164
419.4500	70.5087
419.4000	70.5023
419.3500	70.4968
419.3000	70.4878
419.2500	70.4784
419.2000	70.4694
419.1500	70.4612
419.1000	70.4517
419.0500	70.4437
419.0000	70.4384
418.9500	70.4328
418.9000	70.4258
418.8500	70.4169
418.8000	70.4115
418.7500	70.3976
418.7000	70.3922
418.6500	70.3822
418.6000	70.3764
418.5500	70.3687
418.5000	70.3587
418.4500	70.3543
418.4000	70.3443
418.3500	70.3326
418.3000	70.3248
418.2500	70.3177
418.2000	70.3113
418.1500	70.2992
418.1000	70.2926
418.0500	70.2855
418.0000	70.2836
417.9500	70.2756
417.9000	70.2707
417.8500	70.2655
417.8000	70.2593
417.7500	70.2466
417.7000	70.2434
417.6500	70.24
417.6000	70.2354
417.5500	70.2296
417.5000	70.2239
417.4500	70.2132
417.4000	70.2094
417.3500	70.2051
417.3000	70.2036
417.2500	70.1944
417.2000	70.1927
417.1500	70.1887
417.1000	70.1834
417.0500	70.1778
417.0000	70.1762
416.9500	70.1713
416.9000	70.1684
416.8500	70.1604
416.8000	70.1629
416.7500	70.1616
416.7000	70.1618
416.6500	70.1581
416.6000	70.1559
416.5500	70.1522
416.5000	70.1565
416.4500	70.1494
416.4000	70.1459
416.3500	70.1473
416.3000	70.1479
416.2500	70.1437
416.2000	70.1471
416.1500	70.1465
416.1000	70.1488
416.0500	70.1418
416.0000	70.1455
415.9500	70.1411
415.9000	70.1478
415.8500	70.1446
415.8000	70.1479
415.7500	70.1429
415.7000	70.1435
415.6500	70.1422
415.6000	70.143
415.5500	70.1414
415.5000	70.1409
415.4500	70.1387
415.4000	70.1385
415.3500	70.1352
415.3000	70.1382
415.2500	70.1302
415.2000	70.1301
415.1500	70.1201
415.1000	70.1172
415.0500	70.1101
415.0000	70.1091
414.9500	70.1042
414.9000	70.0983
414.8500	70.0945
414.8000	70.0937
414.7500	70.0819
414.7000	70.0744
414.6500	70.0624
414.6000	70.0585
414.5500	70.0479
414.5000	70.0441
414.4500	70.0339
414.4000	70.0331
414.3500	70.0285
414.3000	70.0203
414.2500	70.0105
414.2000	70.0032
414.1500	69.9933
414.1000	69.9867
414.0500	69.9772
414.0000	69.9706
413.9500	69.9599
413.9000	69.9577
413.8500	69.9457
413.8000	69.9395
413.7500	69.9248
413.7000	69.9192
413.6500	69.9148
413.6000	69.9102
413.5500	69.9031
413.5000	69.9014
413.4500	69.892
413.4000	69.8906
413.3500	69.8839
413.3000	69.8847
413.2500	69.8791
413.2000	69.8753
413.1500	69.8685
413.1000	69.8728
413.0500	69.8698
413.0000	69.8676
412.9500	69.865
412.9000	69.8639
412.8500	69.8613
412.8000	69.8608
412.7500	69.8525
412.7000	69.8551
412.6500	69.8545
412.6000	69.8562
412.5500	69.8555
412.5000	69.8613
412.4500	69.8592
412.4000	69.8653
412.3500	69.8649
412.3000	69.8683
412.2500	69.8725
412.2000	69.8786
412.1500	69.8817
412.1000	69.8872
412.0500	69.8855
412.0000	69.8875
411.9500	69.8919
411.9000	69.8956
411.8500	69.8983
411.8000	69.9049
411.7500	69.9046
411.7000	69.9097
411.6500	69.9108
411.6000	69.9178
411.5500	69.9221
411.5000	69.9219
411.4500	69.9187
411.4000	69.9217
411.3500	69.9253
411.3000	69.9278
411.2500	69.9287
411.2000	69.9289
411.1500	69.9322
411.1000	69.9333
411.0500	69.9369
411.0000	69.941
410.9500	69.9401
410.9000	69.9405
410.8500	69.943
410.8000	69.9424
410.7500	69.9441
410.7000	69.9416
410.6500	69.9397
410.6000	69.9365
410.5500	69.9343
410.5000	69.928
410.4500	69.9305
410.4000	69.9284
410.3500	69.9257
410.3000	69.9216
410.2500	69.9197
410.2000	69.9116
410.1500	69.9078
410.1000	69.8998
410.0500	69.897
410.0000	69.8919
409.9500	69.8843
409.9000	69.8814
409.8500	69.8798
409.8000	69.8736
409.7500	69.872
409.7000	69.8648
409.6500	69.8647
409.6000	69.8546
409.5500	69.8505
409.5000	69.8375
409.4500	69.8314
409.4000	69.8183
409.3500	69.8161
409.3000	69.8087
409.2500	69.8031
409.2000	69.7937
409.1500	69.7865
409.1000	69.7791
409.0500	69.7775
409.0000	69.7759
408.9500	69.7754
408.9000	69.7739
408.8500	69.774
408.8000	69.7695
408.7500	69.7727
408.7000	69.7654
408.6500	69.7646
408.6000	69.7634
408.5500	69.7673
408.5000	69.7624
408.4500	69.764
408.4000	69.7603
408.3500	69.7654
408.3000	69.7574
408.2500	69.7682
408.2000	69.7651
408.1500	69.7696
408.1000	69.7705
408.0500	69.7754
408.0000	69.7781
407.9500	69.7853
407.9000	69.7924
407.8500	69.7985
407.8000	69.802
407.7500	69.8141
407.7000	69.8129
407.6500	69.8242
407.6000	69.828
407.5500	69.8445
407.5000	69.8489
407.4500	69.862
407.4000	69.8641
407.3500	69.8764
407.3000	69.8806
407.2500	69.8876
407.2000	69.8898
407.1500	69.9003
407.1000	69.9006
407.0500	69.9125
407.0000	69.9123
406.9500	69.9205
406.9000	69.9241
406.8500	69.9382
406.8000	69.9379
406.7500	69.9499
406.7000	69.9557
406.6500	69.9583
406.6000	69.9621
406.5500	69.9668
406.5000	69.9643
406.4500	69.9705
406.4000	69.9642
406.3500	69.971
406.3000	69.9697
406.2500	69.9796
406.2000	69.9788
406.1500	69.9802
406.1000	69.9729
406.0500	69.9755
406.0000	69.9702
405.9500	69.9684
405.9000	69.963
405.8500	69.9615
405.8000	69.9501
405.7500	69.9538
405.7000	69.9451
405.6500	69.9478
405.6000	69.9417
405.5500	69.9404
405.5000	69.9376
405.4500	69.9369
405.4000	69.9281
405.3500	69.9314
405.3000	69.9264
405.2500	69.9216
405.2000	69.9209
405.1500	69.9223
405.1000	69.9162
405.0500	69.9149
405.0000	69.907
404.9500	69.9121
404.9000	69.9046
404.8500	69.9107
404.8000	69.9123
404.7500	69.9169
404.7000	69.9126
404.6500	69.9151
404.6000	69.9115
404.5500	69.915
404.5000	69.9216
404.4500	69.9342
404.4000	69.9354
404.3500	69.9477
404.3000	69.9518
404.2500	69.9635
404.2000	69.9685
404.1500	69.9787
404.1000	69.9877
404.0500	69.9988
404.0000	70.0054
403.9500	70.0179
403.9000	70.0286
403.8500	70.0426
403.8000	70.0573
403.7500	70.0709
403.7000	70.0834
403.6500	70.0994
403.6000	70.1105
403.5500	70.1285
403.5000	70.1412
403.4500	70.1658
403.4000	70.1823
403.3500	70.2017
403.3000	70.2197
403.2500	70.2411
403.2000	70.2604
403.1500	70.2801
403.1000	70.2994
403.0500	70.3148
403.0000	70.3354
402.9500	70.3552
402.9000	70.3746
402.8500	70.3901
402.8000	70.4122
402.7500	70.4277
402.7000	70.4488
402.6500	70.4611
402.6000	70.4787
402.5500	70.4943
402.5000	70.5106
402.4500	70.5263
402.4000	70.5452
402.3500	70.5595
402.3000	70.5765
402.2500	70.5928
402.2000	70.6042
402.1500	70.6199
402.1000	70.6309
402.0500	70.6451
402.0000	70.659
401.9500	70.6662
401.9000	70.6742
401.8500	70.6834
401.8000	70.6949
401.7500	70.6993
401.7000	70.7113
401.6500	70.7102
401.6000	70.7175
401.5500	70.7201
401.5000	70.7301
401.4500	70.7357
401.4000	70.7415
401.3500	70.7467
401.3000	70.7514
401.2500	70.7514
401.2000	70.7557
401.1500	70.7583
401.1000	70.7585
401.0500	70.7651
401.0000	70.7725
400.9500	70.7753
400.9000	70.7834
400.8500	70.7832
400.8000	70.7935
400.7500	70.7924
400.7000	70.7977
400.6500	70.7992
400.6000	70.8099
400.5500	70.812
400.5000	70.8218
400.4500	70.8223
400.4000	70.8299
400.3500	70.8373
400.3000	70.8506
400.2500	70.8511
400.2000	70.8656
400.1500	70.8739
400.1000	70.889
400.0500	70.9005
400.0000	70.9134
399.9500	70.9281
399.9000	70.9403
399.8500	70.9555
399.8000	70.9741
399.7500	70.9833
399.7000	71.0052
399.6500	71.0183
399.6000	71.0357
399.5500	71.0507
399.5000	71.0739
399.4500	71.0831
399.4000	71.1061
399.3500	71.1193
399.3000	71.1353
399.2500	71.1508
399.2000	71.1641
399.1500	71.1799
399.1000	71.2034
399.0500	71.2179
399.0000	71.2367
398.9500	71.2498
398.9000	71.2691
398.8500	71.282
398.8000	71.3019
398.7500	71.3134
398.7000	71.3338
398.6500	71.3468
398.6000	71.3588
398.5500	71.3676
398.5000	71.375
398.4500	71.3814
398.4000	71.3933
398.3500	71.3948
398.3000	71.4039
398.2500	71.4038
398.2000	71.4111
398.1500	71.4144
398.1000	71.4196
398.0500	71.4152
398.0000	71.4253
397.9500	71.4224
397.9000	71.4258
397.8500	71.4253
397.8000	71.4259
397.7500	71.419
397.7000	71.4179
397.6500	71.4137
397.6000	71.4136
397.5500	71.4062
397.5000	71.4012
397.4500	71.3923
397.4000	71.3908
397.3500	71.3828
397.3000	71.3792
397.2500	71.3714
397.2000	71.3699
397.1500	71.3578
397.1000	71.3554
397.0500	71.349
397.0000	71.3448
396.9500	71.3363
396.9000	71.3404
396.8500	71.3317
396.8000	71.3322
396.7500	71.3264
396.7000	71.3328
396.6500	71.3276
396.6000	71.3287
396.5500	71.3211
396.5000	71.3231
396.4500	71.3232
396.4000	71.323
396.3500	71.3215
396.3000	71.3212
396.2500	71.3209
396.2000	71.3238
396.1500	71.3256
396.1000	71.3336
396.0500	71.3374
396.0000	71.3454
395.9500	71.3471
395.9000	71.3527
395.8500	71.3582
395.8000	71.3657
395.7500	71.3701
395.7000	71.3802
395.6500	71.3843
395.6000	71.3878
395.5500	71.3944
395.5000	71.4021
395.4500	71.408
395.4000	71.4176
395.3500	71.4215
395.3000	71.4295
395.2500	71.4344
395.2000	71.4394
395.1500	71.4422
395.1000	71.4462
395.0500	71.4463
395.0000	71.4496
394.9500	71.4565
394.9000	71.4562
394.8500	71.4575
394.8000	71.4579
394.7500	71.4569
394.7000	71.4579
394.6500	71.4559
394.6000	71.4573
394.5500	71.4555
394.5000	71.4542
394.4500	71.4493
394.4000	71.4489
394.3500	71.4455
394.3000	71.4436
394.2500	71.4368
394.2000	71.4304
394.1500	71.4212
394.1000	71.4097
394.0500	71.4015
394.0000	71.3914
393.9500	71.3819
393.9000	71.3732
393.8500	71.3599
393.8000	71.3545
393.7500	71.3458
393.7000	71.3334
393.6500	71.3212
393.6000	71.3133
393.5500	71.3018
393.5000	71.291
393.4500	71.2843
393.4000	71.2784
393.3500	71.2688
393.3000	71.2626
393.2500	71.2541
393.2000	71.2479
393.1500	71.2375
393.1000	71.2339
393.0500	71.2279
393.0000	71.2219
392.9500	71.2164
392.9000	71.2122
392.8500	71.2048
392.8000	71.1981
392.7500	71.1967
392.7000	71.1937
392.6500	71.1909
392.6000	71.191
392.5500	71.1934
392.5000	71.199
392.4500	71.2007
392.4000	71.205
392.3500	71.2108
392.3000	71.2105
392.2500	71.2125
392.2000	71.2146
392.1500	71.2194
392.1000	71.2259
392.0500	71.2327
392.0000	71.2386
391.9500	71.2467
391.9000	71.2511
391.8500	71.2569
391.8000	71.2626
391.7500	71.2663
391.7000	71.2722
391.6500	71.2799
391.6000	71.2864
391.5500	71.296
391.5000	71.3048
391.4500	71.3112
391.4000	71.3149
391.3500	71.3202
391.3000	71.3236
391.2500	71.3289
391.2000	71.3304
391.1500	71.334
391.1000	71.3369
391.0500	71.3401
391.0000	71.3401
390.9500	71.3347
390.9000	71.3339
390.8500	71.3357
390.8000	71.3344
390.7500	71.3294
390.7000	71.3338
390.6500	71.3318
390.6000	71.3309
390.5500	71.3311
390.5000	71.329
390.4500	71.3242
390.4000	71.3236
390.3500	71.319
390.3000	71.3192
390.2500	71.3173
390.2000	71.3126
390.1500	71.3142
390.1000	71.3146
390.0500	71.3086
390.0000	71.3028
389.9500	71.2983
389.9000	71.2916
389.8500	71.2906
389.8000	71.2863
389.7500	71.2844
389.7000	71.2792
389.6500	71.2787
389.6000	71.2807
389.5500	71.282
389.5000	71.2817
389.4500	71.2822
389.4000	71.2853
389.3500	71.2881
389.3000	71.2904
389.2500	71.2915
389.2000	71.2972
389.1500	71.3003
389.1000	71.3033
389.0500	71.3088
389.0000	71.3123
388.9500	71.313
388.9000	71.3186
388.8500	71.325
388.8000	71.3261
388.7500	71.3313
388.7000	71.3315
388.6500	71.3325
388.6000	71.3341
388.5500	71.3351
388.5000	71.3336
388.4500	71.3374
388.4000	71.3436
388.3500	71.3493
388.3000	71.3525
388.2500	71.3506
388.2000	71.3548
388.1500	71.3561
388.1000	71.3613
388.0500	71.3612
388.0000	71.3674
387.9500	71.3668
387.9000	71.3662
387.8500	71.3668
387.8000	71.3671
387.7500	71.3672
387.7000	71.3636
387.6500	71.362
387.6000	71.3605
387.5500	71.3566
387.5000	71.351
387.4500	71.347
387.4000	71.3406
387.3500	71.3341
387.3000	71.328
387.2500	71.3208
387.2000	71.3193
387.1500	71.3115
387.1000	71.3127
387.0500	71.305
387.0000	71.2997
386.9500	71.2928
386.9000	71.2901
386.8500	71.285
386.8000	71.2818
386.7500	71.2695
386.7000	71.2654
386.6500	71.2621
386.6000	71.2588
386.5500	71.2515
386.5000	71.245
386.4500	71.24
386.4000	71.2329
386.3500	71.2246
386.3000	71.2199
386.2500	71.2133
386.2000	71.206
386.1500	71.2029
386.1000	71.2027
386.0500	71.1982
386.0000	71.1947
385.9500	71.1902
385.9000	71.1887
385.8500	71.1814
385.8000	71.1802
385.7500	71.1785
385.7000	71.1762
385.6500	71.1736
385.6000	71.1712
385.5500	71.17
385.5000	71.1621
385.4500	71.1593
385.4000	71.1637
385.3500	71.1606
385.3000	71.1549
385.2500	71.1468
385.2000	71.1431
385.1500	71.1429
385.1000	71.1409
385.0500	71.1338
385.0000	71.1333
384.9500	71.1283
384.9000	71.127
384.8500	71.1221
384.8000	71.1203
384.7500	71.1131
384.7000	71.112
384.6500	71.1019
384.6000	71.0936
384.5500	71.0802
384.5000	71.0672
384.4500	71.0567
384.4000	71.0484
384.3500	71.0427
384.3000	71.0351
384.2500	71.0276
384.2000	71.0183
384.1500	71.0088
384.1000	70.9981
384.0500	70.9835
384.0000	70.9746
383.9500	70.9632
383.9000	70.9531
383.8500	70.9415
383.8000	70.9278
383.7500	70.9156
383.7000	70.9087
383.6500	70.8959
383.6000	70.8836
383.5500	70.8655
383.5000	70.8545
383.4500	70.8407
383.4000	70.8262
383.3500	70.811
383.3000	70.8005
383.2500	70.7833
383.2000	70.7667
383.1500	70.7525
383.1000	70.7359
383.0500	70.7239
383.0000	70.7125
382.9500	70.7056
382.9000	70.6952
382.8500	70.6779
382.8000	70.6623
382.7500	70.646
382.7000	70.6307
382.6500	70.611
382.6000	70.5983
382.5500	70.5805
382.5000	70.5635
382.4500	70.552
382.4000	70.5311
382.3500	70.5134
382.3000	70.4971
382.2500	70.4842
382.2000	70.4677
382.1500	70.4483
382.1000	70.4258
382.0500	70.412
382.0000	70.394
381.9500	70.3779
381.9000	70.3599
381.8500	70.3423
381.8000	70.3249
381.7500	70.3054
381.7000	70.2877
381.6500	70.2707
381.6000	70.2521
381.5500	70.2308
381.5000	70.2088
381.4500	70.1886
381.4000	70.1715
381.3500	70.1465
381.3000	70.1278
381.2500	70.1096
381.2000	70.0904
381.1500	70.0624
381.1000	70.0437
381.0500	70.0237
381.0000	70.0021
380.9500	69.9763
380.9000	69.9567
380.8500	69.9322
380.8000	69.9119
380.7500	69.8847
380.7000	69.8614
380.6500	69.8343
380.6000	69.8111
380.5500	69.7854
380.5000	69.7651
380.4500	69.7381
380.4000	69.713
380.3500	69.6875
380.3000	69.6595
380.2500	69.6294
380.2000	69.601
380.1500	69.5744
380.1000	69.5387
380.0500	69.5043
380.0000	69.4724
379.9500	69.4451
379.9000	69.4183
379.8500	69.3836
379.8000	69.3539
379.7500	69.3204
379.7000	69.2869
379.6500	69.2535
379.6000	69.2236
379.5500	69.1931
379.5000	69.1559
379.4500	69.1218
379.4000	69.0848
379.3500	69.0507
379.3000	69.0166
379.2500	68.9813
379.2000	68.9461
379.1500	68.9149
379.1000	68.8776
379.0500	68.8414
379.0000	68.8042
378.9500	68.7672
378.9000	68.7302
378.8500	68.6921
378.8000	68.6513
378.7500	68.6123
378.7000	68.5751
378.6500	68.5338
378.6000	68.4931
378.5500	68.4504
378.5000	68.4198
378.4500	68.3843
378.4000	68.3464
378.3500	68.3058
378.3000	68.2649
378.2500	68.2251
378.2000	68.1801
378.1500	68.1388
378.1000	68.1004
378.0500	68.0577
378.0000	68.0135
377.9500	67.9678
377.9000	67.9222
377.8500	67.8754
377.8000	67.8327
377.7500	67.7878
377.7000	67.743
377.6500	67.6945
377.6000	67.6494
377.5500	67.5992
377.5000	67.5517
377.4500	67.5036
377.4000	67.4527
377.3500	67.4029
377.3000	67.351
377.2500	67.2992
377.2000	67.2532
377.1500	67.1991
377.1000	67.1497
377.0500	67.0998
377.0000	67.0494
376.9500	66.9965
376.9000	66.9332
376.8500	66.8744
376.8000	66.8161
376.7500	66.7567
376.7000	66.6993
376.6500	66.6373
376.6000	66.58
376.5500	66.5206
376.5000	66.4579
376.4500	66.3955
376.4000	66.334
376.3500	66.2741
376.3000	66.2164
376.2500	66.1557
376.2000	66.0919
376.1500	66.0276
376.1000	65.9614
376.0500	65.8963
376.0000	65.8287
375.9500	65.7602
375.9000	65.6919
375.8500	65.6155
375.8000	65.545
375.7500	65.4748
375.7000	65.4082
375.6500	65.3381
375.6000	65.2649
375.5500	65.1896
375.5000	65.1128
375.4500	65.0391
375.4000	64.9607
375.3500	64.8822
375.3000	64.8119
375.2500	64.7365
375.2000	64.6601
375.1500	64.5789
375.1000	64.4968
375.0500	64.4194
375.0000	64.3374
374.9500	64.2532
374.9000	64.1683
374.8500	64.0815
374.8000	63.9941
374.7500	63.9028
374.7000	63.8111
374.6500	63.7169
374.6000	63.6242
374.5500	63.5301
374.5000	63.4347
374.4500	63.3368
374.4000	63.2388
374.3500	63.1397
374.3000	63.0404
374.2500	62.9424
374.2000	62.8414
374.1500	62.7362
374.1000	62.6283
374.0500	62.5197
374.0000	62.4109
373.9500	62.3016
373.9000	62.1871
373.8500	62.0704
373.8000	61.9582
373.7500	61.8432
373.7000	61.7244
373.6500	61.6018
373.6000	61.4819
373.5500	61.3609
373.5000	61.2402
373.4500	61.1131
373.4000	60.9879
373.3500	60.8539
373.3000	60.7223
373.2500	60.5932
373.2000	60.4627
373.1500	60.3252
373.1000	60.1853
373.0500	60.0422
373.0000	59.8997
372.9500	59.7561
372.9000	59.6137
372.8500	59.4698
372.8000	59.3242
372.7500	59.1753
372.7000	59.0246
372.6500	58.8683
372.6000	58.7165
372.5500	58.5557
372.5000	58.3935
372.4500	58.226
372.4000	58.0602
372.3500	57.8904
372.3000	57.7213
372.2500	57.5497
372.2000	57.3782
372.1500	57.2001
372.1000	57.0223
372.0500	56.8436
372.0000	56.6626
371.9500	56.4729
371.9000	56.2863
371.8500	56.0911
371.8000	55.8943
371.7500	55.7013
371.7000	55.5046
371.6500	55.2979
371.6000	55.0936
371.5500	54.8865
371.5000	54.6852
371.4500	54.4784
371.4000	54.2694
371.3500	54.0523
371.3000	53.8366
371.2500	53.6137
371.2000	53.3892
371.1500	53.1601
371.1000	52.9341
371.0500	52.7002
371.0000	52.4651
370.9500	52.2239
370.9000	51.9874
370.8500	51.7407
370.8000	51.4986
370.7500	51.251
370.7000	51.0077
370.6500	50.7531
370.6000	50.495
370.5500	50.2329
370.5000	49.9711
370.4500	49.7032
370.4000	49.4385
370.3500	49.166
370.3000	48.8968
370.2500	48.6203
370.2000	48.3486
370.1500	48.0674
370.1000	47.7913
370.0500	47.5063
370.0000	45.1309
369.9500	44.832
369.9000	44.5312
369.8500	44.2249
369.8000	43.9074
369.7500	43.5984
369.7000	43.2882
369.6500	42.9755
369.6000	42.6557
369.5500	42.3369
369.5000	42.0126
369.4500	41.6885
369.4000	41.3589
369.3500	41.0261
369.3000	40.6931
369.2500	40.3608
369.2000	40.0266
369.1500	39.6909
369.1000	39.3441
369.0500	38.9961
369.0000	38.6476
368.9500	38.2995
368.9000	37.952
368.8500	37.597
368.8000	37.2479
368.7500	36.8938
368.7000	36.5365
368.6500	36.1758
368.6000	35.809
368.5500	35.4471
368.5000	35.0839
368.4500	34.7231
368.4000	34.3546
368.3500	33.9878
368.3000	33.6151
368.2500	33.2464
368.2000	32.8825
368.1500	32.515
368.1000	32.14
368.0500	31.7629
368.0000	31.3916
367.9500	31.0142
367.9000	30.6366
367.8500	30.2577
367.8000	29.8827
367.7500	29.5094
367.7000	29.1351
367.6500	28.7613
367.6000	28.3833
367.5500	28.0061
367.5000	27.6342
367.4500	27.2646
367.4000	26.8933
367.3500	26.5191
367.3000	26.1468
367.2500	25.7747
367.2000	25.4037
367.1500	25.035
367.1000	24.6715
367.0500	24.306
367.0000	23.9439
366.9500	23.5766
366.9000	23.2113
366.8500	22.8462
366.8000	22.487
366.7500	22.1291
366.7000	21.7767
366.6500	21.4233
366.6000	21.0703
366.5500	20.718
366.5000	20.368
366.4500	20.0206
366.4000	19.6771
366.3500	19.3359
366.3000	18.999
366.2500	18.6644
366.2000	18.3308
366.1500	17.9989
366.1000	17.6685
366.0500	17.3378
366.0000	17.0128
365.9500	16.6907
365.9000	16.3705
365.8500	16.0498
365.8000	15.7335
365.7500	15.4229
365.7000	15.1155
365.6500	14.8136
365.6000	14.5139
365.5500	14.2146
365.5000	13.9159
365.4500	13.6209
365.4000	13.3316
365.3500	13.0481
365.3000	12.7677
365.2500	12.4891
365.2000	12.2123
365.1500	11.9377
365.1000	11.6656
365.0500	11.3955
365.0000	11.1308
364.9500	10.8678
364.9000	10.612
364.8500	10.3588
364.8000	10.1084
364.7500	9.86203
364.7000	9.61856
364.6500	9.37794
364.6000	9.14056
364.5500	8.90485
364.5000	8.67679
364.4500	8.45207
364.4000	8.23262
364.3500	8.01368
364.3000	7.79991
364.2500	7.58939
364.2000	7.38281
364.1500	7.17914
364.1000	6.978
364.0500	6.77818
364.0000	6.58159
363.9500	6.38978
363.9000	6.20331
363.8500	6.01971
363.8000	5.8394
363.7500	5.66166
363.7000	5.48833
363.6500	5.31663
363.6000	5.1488
363.5500	4.98454
363.5000	4.82509
363.4500	4.66938
363.4000	4.51558
363.3500	4.36441
363.3000	4.21739
363.2500	4.07437
363.2000	3.93346
363.1500	3.79572
363.1000	3.66129
363.0500	3.52961
363.0000	3.40232
362.9500	3.27787
362.9000	3.1557
362.8500	3.03615
362.8000	2.91945
362.7500	2.80564
362.7000	2.69577
362.6500	2.58799
362.6000	2.48296
362.5500	2.3804
362.5000	2.28243
362.4500	2.18774
362.4000	2.09665
362.3500	2.00705
362.3000	1.91995
362.2500	1.83596
362.2000	1.75468
362.1500	1.67572
362.1000	1.59948
362.0500	1.52581
362.0000	1.45439
361.9500	1.38514
361.9000	1.31829
361.8500	1.25366
361.8000	1.19232
361.7500	1.13377
361.7000	1.07711
361.6500	1.02179
361.6000	0.968719
361.5500	0.917446
361.5000	0.869059
361.4500	0.822534
361.4000	0.777396
361.3500	0.734434
361.3000	0.693434
361.2500	0.654373
361.2000	0.61704
361.1500	0.581521
361.1000	0.547202
361.0500	0.51452
361.0000	0.483433
360.9500	0.454139
360.9000	0.426003
360.8500	0.39904
360.8000	0.373753
360.7500	0.34989
360.7000	0.327487
360.6500	0.306205
360.6000	0.285935
360.5500	0.266689
360.5000	0.248299
360.4500	0.231084
360.4000	0.215063
360.3500	0.200105
360.3000	0.186244
360.2500	0.172966
360.2000	0.160611
360.1500	0.148729
360.1000	0.137681
360.0500	0.127398
360.0000	0.117772
359.9500	0.108946
359.9000	0.100656
359.8500	0.0929372
359.8000	0.0856479
359.7500	0.0791542
359.7000	0.0729581
359.6500	0.0670675
359.6000	0.0617526
359.5500	0.0568175
359.5000	0.052299
359.4500	0.0481262
359.4000	0.0445199
359.3500	0.0409576
359.3000	0.0376947
359.2500	0.0347745
359.2000	0.0320463
359.1500	0.0296174
359.1000	0.0273793
359.0500	0.0253309
359.0000	0.0233984
358.9500	0.0217677
358.9000	0.0203989
358.8500	0.0191091
358.8000	0.0179306
358.7500	0.0167932
358.7000	0.0157313
358.6500	0.0147454
358.6000	0.0138723
358.5500	0.0131495
358.5000	0.0125039
358.4500	0.0118974
358.4000	0.0114015
358.3500	0.0109446
358.3000	0.0104878
358.2500	0.0100327
358.2000	0.00965234
358.1500	0.00927127
358.1000	0.00904196
358.0500	0.00877281
358.0000	0.00846788
357.9500	0.00823891
357.9000	0.00794174
357.8500	0.00779293
357.8000	0.00753422
357.7500	0.00734903
357.7000	0.00720024
357.6500	0.00708913
357.6000	0.00697759
357.5500	0.00682931
357.5000	0.00679029
357.4500	0.00667863
357.4000	0.00663998
357.3500	0.00656546
357.3000	0.00649161
357.2500	0.00641683
357.2000	0.00627
357.1500	0.00619561
357.1000	0.00612035
357.0500	0.00604546
357.0000	0.00597055
356.9500	0.00596911
356.9000	0.00585739
356.8500	0.00578363
356.8000	0.00574576
356.7500	0.00570849
356.7000	0.00567067
356.6500	0.00563355
356.6000	0.00552274
356.5500	0.00541206
356.5000	0.00537409
356.4500	0.00530019
356.4000	0.0052626
356.3500	0.00518847
356.3000	0.00525959
356.2500	0.00522165
356.2000	0.00522058
356.1500	0.00518314
356.1000	0.00514546
356.0500	0.00510799
356.0000	0.00507003
355.9500	0.00506901
355.9000	0.00492217
355.8500	0.00488458
355.8000	0.00481061
355.7500	0.00477334
355.7000	0.00469952
355.6500	0.00466249
355.6000	0.00466062
355.5500	0.00465937
355.5000	0.00458559
355.4500	0.0045485
355.4000	0.00458328
355.3500	0.00451007
355.3000	0.00450974
355.2500	0.00447264
355.2000	0.00443561
355.1500	0.00439798
355.1000	0.00443266
355.0500	0.00439467
355.0000	0.00442938
354.9500	0.00442852
354.9000	0.00439126
354.8500	0.00439078
354.8000	0.00442589
354.7500	0.00431713
354.7000	0.00417186
354.6500	0.00409882
354.6000	0.00406175
354.5500	0.00406068
354.5000	0.00402407
354.4500	0.00398718
354.4000	0.00395011
354.3500	0.00391284
354.3000	0.00398386
354.2500	0.00394785
354.2000	0.00394667
354.1500	0.00394603
354.1000	0.00394479
354.0500	0.00383579
354.0000	0.00379877
353.9500	0.00376252
353.9000	0.0037264
353.8500	0.00376196
353.8000	0.00368966
353.7500	0.00368944
353.7000	0.00365275
353.6500	0.0036154
353.6000	0.00354231
353.5500	0.0035416
353.5000	0.00346928
353.4500	0.00350456
353.4000	0.00343208
353.3500	0.00346764
353.3000	0.00346698
353.2500	0.00346645
353.2000	0.00346557
353.1500	0.00353626
353.1000	0.00360692
353.0500	0.00364253
353.0000	0.00367706
352.9500	0.00367539
352.9000	0.00370955
352.8500	0.00370907
352.8000	0.00374402
352.7500	0.0037444
352.7000	0.00370796
352.6500	0.00363618
352.6000	0.00356452
352.5500	0.00352772
352.5000	0.00345531
352.4500	0.00349073
352.4000	0.00349027
352.3500	0.00352488
352.3000	0.00355916
352.2500	0.00352253
352.2000	0.00352193
352.1500	0.00352123
352.1000	0.00348483
352.0500	0.00352065
352.0000	0.00348442
351.9500	0.00344877
351.9000	0.00348362
351.8500	0.00344784
351.8000	0.00344657
351.7500	0.00340957
351.7000	0.00340861
351.6500	0.00337211
351.6000	0.003372
351.5500	0.00340772
351.5000	0.00340783
351.4500	0.00340719
351.4000	0.00337101
351.3500	0.0033719
351.3000	0.00330052
351.2500	0.00330004
351.2000	0.00322825
351.1500	0.00322719
351.1000	0.003227
351.0500	0.00326176
351.0000	0.00329685
350.9500	0.00326109
350.9000	0.00329611
350.8500	0.00325982
350.8000	0.00322357
350.7500	0.00318798
350.7000	0.00318791
350.6500	0.00322349
350.6000	0.00318698
350.5500	0.0031156
350.5000	0.00315059
350.4500	0.0031145
350.4000	0.0031853
350.3500	0.00311319
350.3000	0.00307729
350.2500	0.00307648
350.2000	0.00311169
350.1500	0.00311207
350.1000	0.00307681
350.0500	0.00307668
350.0000	0.00300469
