TITLE	n-GaN
DATA TYPE	ULTRAVIOLET SPECTRUM
ORIGIN	JASCO
OWNER	
DATE	19/12/06
TIME	15:18:42
SPECTROMETER/DATA SYSTEM	
RESOLUTION	
DELTAX	-0.5
XUNITS	NANOMETERS
YUNITS	TRANSMITTANCE
FIRSTX	 2500.0000
LASTX	  350.0000
NPOINTS	    4301
FIRSTY	    85.58065
MAXY	    87.85333
MINY	     0.04718
XYDATA
2500.0000	85.5807
2499.5000	83.1591
2499.0000	80.1678
2498.5000	79.2963
2498.0000	80.9664
2497.5000	84.0189
2497.0000	86.2913
2496.5000	86.7196
2496.0000	84.866
2495.5000	82.1323
2495.0000	79.6606
2494.5000	79.1476
2494.0000	80.4644
2493.5000	83.5504
2493.0000	85.858
2492.5000	86.4819
2492.0000	84.59
2491.5000	81.2856
2491.0000	78.421
2490.5000	78.0853
2490.0000	79.5722
2489.5000	82.7327
2489.0000	85.0402
2488.5000	85.63
2488.0000	83.8096
2487.5000	81.1323
2487.0000	78.5015
2486.5000	77.7717
2486.0000	79.1998
2485.5000	82.1745
2485.0000	85.0694
2484.5000	85.4186
2484.0000	83.5399
2483.5000	80.3146
2483.0000	77.4636
2482.5000	76.7076
2482.0000	78.4275
2481.5000	81.7544
2481.0000	84.1866
2480.5000	85.3615
2480.0000	82.8399
2479.5000	79.5568
2479.0000	76.3911
2478.5000	76.1801
2478.0000	77.7242
2477.5000	80.948
2477.0000	83.5855
2476.5000	84.0763
2476.0000	81.963
2475.5000	78.9318
2475.0000	75.6708
2474.5000	75.1966
2474.0000	76.5352
2473.5000	80.2327
2473.0000	82.8162
2472.5000	83.6024
2472.0000	81.5549
2471.5000	78.0375
2471.0000	74.9344
2470.5000	73.9509
2470.0000	76.3654
2469.5000	79.6024
2469.0000	82.8876
2468.5000	82.9751
2468.0000	81.2957
2467.5000	77.4345
2467.0000	74.0746
2466.5000	73.1677
2466.0000	74.8693
2465.5000	78.4133
2465.0000	81.2378
2464.5000	81.7863
2464.0000	80.0474
2463.5000	76.7776
2463.0000	73.7108
2462.5000	72.8426
2462.0000	74.6038
2461.5000	78.4636
2461.0000	81.2984
2460.5000	81.6832
2460.0000	79.1984
2459.5000	75.4828
2459.0000	72.5716
2458.5000	72.3714
2458.0000	74.6337
2457.5000	78.0663
2457.0000	80.8758
2456.5000	80.687
2456.0000	77.8145
2455.5000	74.369
2455.0000	71.8182
2454.5000	71.8918
2454.0000	74.5647
2453.5000	78.3383
2453.0000	80.6394
2452.5000	79.5415
2452.0000	76.3355
2451.5000	72.339
2451.0000	70.6244
2450.5000	71.8146
2450.0000	74.8555
2449.5000	78.3807
2449.0000	79.4694
2448.5000	78.0341
2448.0000	74.1748
2447.5000	70.9669
2447.0000	70.2513
2446.5000	72.3733
2446.0000	76.2115
2445.5000	78.9142
2445.0000	79.1893
2444.5000	76.6901
2444.0000	72.8232
2443.5000	69.9986
2443.0000	70.0707
2442.5000	72.6424
2442.0000	76.3511
2441.5000	78.4324
2441.0000	78.4954
2440.5000	75.0174
2440.0000	71.5852
2439.5000	69.2784
2439.0000	69.7409
2438.5000	73.179
2438.0000	76.8604
2437.5000	78.6016
2437.0000	77.0852
2436.5000	73.5949
2436.0000	69.9392
2435.5000	69.1026
2435.0000	70.5799
2434.5000	73.9076
2434.0000	77.0988
2433.5000	77.8247
2433.0000	76.2526
2432.5000	72.4467
2432.0000	69.3584
2431.5000	68.6315
2431.0000	71.3446
2430.5000	75.0576
2430.0000	77.7001
2429.5000	77.5378
2429.0000	74.5652
2428.5000	70.6905
2428.0000	68.3225
2427.5000	68.9796
2427.0000	72.3776
2426.5000	75.7596
2426.0000	77.5241
2425.5000	76.4187
2425.0000	73.1608
2424.5000	69.3863
2424.0000	68.2918
2423.5000	69.954
2423.0000	73.8595
2422.5000	76.9988
2422.0000	77.4427
2421.5000	75.2218
2421.0000	71.3096
2420.5000	68.3704
2420.0000	68.1791
2419.5000	71.1155
2419.0000	74.611
2418.5000	76.9153
2418.0000	76.2476
2417.5000	73.7125
2417.0000	69.7078
2416.5000	67.9322
2416.0000	68.8635
2415.5000	72.6879
2415.0000	75.8995
2414.5000	77.1884
2414.0000	75.14
2413.5000	71.4379
2413.0000	68.5826
2412.5000	67.7174
2412.0000	70.2126
2411.5000	73.9003
2411.0000	76.4936
2410.5000	76.445
2410.0000	73.8839
2409.5000	70.2038
2409.0000	67.9267
2408.5000	68.2948
2408.0000	71.3375
2407.5000	75.1504
2407.0000	77.048
2406.5000	75.8304
2406.0000	72.5049
2405.5000	69.11
2405.0000	68.4005
2404.5000	70.1539
2404.0000	73.5556
2403.5000	76.7225
2403.0000	76.9155
2402.5000	74.1001
2402.0000	70.317
2401.5000	68.1801
2401.0000	69.1327
2400.5000	72.5286
2400.0000	75.8703
2399.5000	77.2619
2399.0000	75.8256
2398.5000	72.5766
2398.0000	69.6394
2397.5000	68.7049
2397.0000	70.949
2396.5000	74.7599
2396.0000	77.6029
2395.5000	77.4056
2395.0000	74.2502
2394.5000	70.6689
2394.0000	69.1363
2393.5000	70.7712
2393.0000	74.1668
2392.5000	77.0759
2392.0000	77.7751
2391.5000	75.4306
2391.0000	71.9905
2390.5000	68.9816
2390.0000	69.3526
2389.5000	72.4797
2389.0000	76.147
2388.5000	78.0228
2388.0000	76.7042
2387.5000	73.4426
2387.0000	70.4687
2386.5000	69.6706
2386.0000	72.0412
2385.5000	75.6055
2385.0000	77.9985
2384.5000	77.6523
2384.0000	75.0941
2383.5000	71.6966
2383.0000	70.2504
2382.5000	71.8742
2382.0000	75.2196
2381.5000	78.5147
2381.0000	79.1272
2380.5000	76.8401
2380.0000	73.3768
2379.5000	71.1701
2379.0000	71.8305
2378.5000	74.4465
2378.0000	77.5111
2377.5000	79.4842
2377.0000	78.0193
2376.5000	75.2893
2376.0000	72.1319
2375.5000	71.8104
2375.0000	74.0959
2374.5000	77.7639
2374.0000	79.6458
2373.5000	79.1652
2373.0000	76.4836
2372.5000	73.922
2372.0000	72.6805
2371.5000	74.4434
2371.0000	77.7312
2370.5000	80.3648
2370.0000	80.6893
2369.5000	78.0573
2369.0000	75.2328
2368.5000	73.3109
2368.0000	74.7201
2367.5000	77.4333
2367.0000	80.4017
2366.5000	80.833
2366.0000	78.936
2365.5000	75.7516
2365.0000	73.7744
2364.5000	74.6623
2364.0000	77.6078
2363.5000	80.6342
2363.0000	81.8636
2362.5000	80.32
2362.0000	77.5309
2361.5000	75.4886
2361.0000	75.2729
2360.5000	77.637
2360.0000	80.4438
2359.5000	82.0533
2359.0000	81.436
2358.5000	78.6064
2358.0000	76.2798
2357.5000	75.5408
2357.0000	77.3258
2356.5000	80.273
2356.0000	82.5929
2355.5000	82.7335
2355.0000	80.17
2354.5000	77.4321
2354.0000	76.3854
2353.5000	77.4982
2353.0000	80.471
2352.5000	83.0243
2352.0000	83.9543
2351.5000	82.1468
2351.0000	79.284
2350.5000	77.3608
2350.0000	77.8592
2349.5000	79.6959
2349.0000	82.5037
2348.5000	83.694
2348.0000	83.0584
2347.5000	80.5813
2347.0000	78.4838
2346.5000	77.9193
2346.0000	80.5661
2345.5000	83.1963
2345.0000	84.3671
2344.5000	83.443
2344.0000	81.0407
2343.5000	79.017
2343.0000	78.6938
2342.5000	80.9268
2342.0000	84.2391
2341.5000	85.9965
2341.0000	84.9899
2340.5000	82.5778
2340.0000	80.2952
2339.5000	79.8518
2339.0000	81.9399
2338.5000	84.6823
2338.0000	86.3228
2337.5000	85.385
2337.0000	82.6315
2336.5000	80.7471
2336.0000	80.5961
2335.5000	82.5488
2335.0000	84.9376
2334.5000	86.3473
2334.0000	85.6369
2333.5000	83.4545
2333.0000	81.5946
2332.5000	80.7837
2332.0000	82.0949
2331.5000	84.4649
2331.0000	86.2133
2330.5000	85.8674
2330.0000	84.332
2329.5000	81.8072
2329.0000	81.6716
2328.5000	82.9436
2328.0000	85.5865
2327.5000	87.073
2327.0000	86.5938
2326.5000	84.714
2326.0000	83.0073
2325.5000	82.5247
2325.0000	83.8211
2324.5000	85.6874
2324.0000	87.2303
2323.5000	86.8917
2323.0000	85.1698
2322.5000	83.023
2322.0000	82.9224
2321.5000	83.9642
2321.0000	86.3135
2320.5000	87.5694
2320.0000	87.3778
2319.5000	85.1985
2319.0000	83.7587
2318.5000	83.4217
2318.0000	85.0855
2317.5000	86.8992
2317.0000	87.8253
2316.5000	86.6806
2316.0000	84.6023
2315.5000	83.0178
2315.0000	83.3749
2314.5000	85.1029
2314.0000	87.2949
2313.5000	87.8408
2313.0000	86.594
2312.5000	84.8227
2312.0000	83.3086
2311.5000	83.8524
2311.0000	85.506
2310.5000	87.2159
2310.0000	87.5416
2309.5000	86.363
2309.0000	84.3615
2308.5000	82.9363
2308.0000	83.6155
2307.5000	85.4598
2307.0000	87.5323
2306.5000	87.7866
2306.0000	86.5128
2305.5000	84.4043
2305.0000	82.9783
2304.5000	83.3061
2304.0000	85.5877
2303.5000	87.4264
2303.0000	87.796
2302.5000	86.3579
2302.0000	84.5284
2301.5000	83.5651
2301.0000	83.766
2300.5000	85.5559
2300.0000	87.5715
2299.5000	87.8533
2299.0000	86.1399
2298.5000	84.0558
2298.0000	82.5177
2297.5000	83.3433
2297.0000	85.1975
2296.5000	86.8915
2296.0000	87.1454
2295.5000	85.2834
2295.0000	83.515
2294.5000	82.1958
2294.0000	83.6792
2293.5000	85.5869
2293.0000	87.3675
2292.5000	86.6821
2292.0000	84.6007
2291.5000	82.6735
2291.0000	82.3064
2290.5000	84.1387
2290.0000	86.0369
2289.5000	86.7049
2289.0000	85.7098
2288.5000	83.5518
2288.0000	81.6721
2287.5000	81.6175
2287.0000	83.2152
2286.5000	85.1506
2286.0000	85.7577
2285.5000	84.222
2285.0000	81.7011
2284.5000	80.9228
2284.0000	81.6545
2283.5000	83.8578
2283.0000	85.352
2282.5000	84.6627
2282.0000	82.8355
2281.5000	80.9628
2281.0000	80.2674
2280.5000	81.5626
2280.0000	83.6827
2279.5000	84.962
2279.0000	84.018
2278.5000	81.7149
2278.0000	79.9623
2277.5000	80.1189
2277.0000	81.9751
2276.5000	83.695
2276.0000	84.4163
2275.5000	83.2509
2275.0000	80.7379
2274.5000	79.0882
2274.0000	79.2874
2273.5000	81.7331
2273.0000	83.2743
2272.5000	83.0902
2272.0000	80.9658
2271.5000	78.7664
2271.0000	77.6732
2270.5000	78.9503
2270.0000	81.1822
2269.5000	82.7681
2269.0000	82.0796
2268.5000	79.6706
2268.0000	77.4346
2267.5000	76.9767
2267.0000	78.5767
2266.5000	81.2189
2266.0000	82.2155
2265.5000	80.9552
2265.0000	78.7652
2264.5000	76.7953
2264.0000	77.1387
2263.5000	78.8935
2263.0000	80.7184
2262.5000	80.9519
2262.0000	79.3765
2261.5000	77.1229
2261.0000	75.8108
2260.5000	76.8111
2260.0000	79.0174
2259.5000	80.5899
2259.0000	79.9227
2258.5000	77.7713
2258.0000	75.4199
2257.5000	75.0123
2257.0000	76.8364
2256.5000	79.2026
2256.0000	79.9595
2255.5000	78.7039
2255.0000	75.9818
2254.5000	74.3484
2254.0000	75.1476
2253.5000	77.2744
2253.0000	79.3158
2252.5000	79.0575
2252.0000	76.4558
2251.5000	74.3654
2251.0000	73.6373
2250.5000	75.4174
2250.0000	77.6577
2249.5000	79.1301
2249.0000	77.9731
2248.5000	75.2118
2248.0000	73.0318
2247.5000	72.9873
2247.0000	75.3948
2246.5000	77.5975
2246.0000	78.1133
2245.5000	75.9603
2245.0000	73.3596
2244.5000	72.2341
2244.0000	73.3504
2243.5000	75.7958
2243.0000	77.2396
2242.5000	76.7134
2242.0000	74.246
2241.5000	72.4954
2241.0000	72.0626
2240.5000	73.971
2240.0000	76.303
2239.5000	77.0864
2239.0000	75.4916
2238.5000	72.704
2238.0000	71.2603
2237.5000	72.1131
2237.0000	74.5298
2236.5000	75.977
2236.0000	75.5429
2235.5000	73.2644
2235.0000	71.1769
2234.5000	71.0089
2234.0000	72.7317
2233.5000	75.0484
2233.0000	76.0019
2232.5000	74.1445
2232.0000	71.7726
2231.5000	70.6066
2231.0000	71.5622
2230.5000	73.828
2230.0000	75.2647
2229.5000	74.7918
2229.0000	72.0996
2228.5000	69.804
2228.0000	69.8786
2227.5000	72.0285
2227.0000	74.4294
2226.5000	74.7061
2226.0000	73.0822
2225.5000	70.3507
2225.0000	69.5619
2224.5000	70.9093
2224.0000	73.4026
2223.5000	74.8641
2223.0000	73.8206
2222.5000	71.3551
2222.0000	69.4925
2221.5000	70.1347
2221.0000	72.6435
2220.5000	74.6145
2220.0000	74.3296
2219.5000	71.8536
2219.0000	69.3129
2218.5000	69.3189
2218.0000	71.0939
2217.5000	73.6219
2217.0000	74.4853
2216.5000	73.1118
2216.0000	70.2632
2215.5000	69.4917
2215.0000	70.3414
2214.5000	73.0825
2214.0000	74.2857
2213.5000	73.4957
2213.0000	70.6793
2212.5000	69.3755
2212.0000	69.8023
2211.5000	71.953
2211.0000	74.0971
2210.5000	74.3013
2210.0000	72.1443
2209.5000	69.884
2209.0000	69.1276
2208.5000	70.8782
2208.0000	73.4931
2207.5000	74.4452
2207.0000	73.0869
2206.5000	70.6354
2206.0000	69.5085
2205.5000	70.8177
2205.0000	72.712
2204.5000	74.3299
2204.0000	73.3656
2203.5000	71.1399
2203.0000	69.8615
2202.5000	70.4614
2202.0000	72.6302
2201.5000	74.5513
2201.0000	73.7905
2200.5000	71.4856
2200.0000	69.8211
2199.5000	70.3576
2199.0000	72.0139
2198.5000	74.1124
2198.0000	74.3584
2197.5000	72.7246
2197.0000	70.834
2196.5000	70.3392
2196.0000	71.8815
2195.5000	74.1011
2195.0000	74.8291
2194.5000	73.3377
2194.0000	71.0779
2193.5000	70.4875
2193.0000	72.0321
2192.5000	74.4066
2192.0000	75.5626
2191.5000	74.6823
2191.0000	72.2916
2190.5000	71.0579
2190.0000	71.8925
2189.5000	74.1696
2189.0000	75.4774
2188.5000	75.0873
2188.0000	72.8546
2187.5000	71.2542
2187.0000	72.0496
2186.5000	74.2911
2186.0000	76.2878
2185.5000	76.2395
2185.0000	73.9801
2184.5000	72.274
2184.0000	71.8583
2183.5000	73.7917
2183.0000	76.1472
2182.5000	76.736
2182.0000	75.4237
2181.5000	73.1495
2181.0000	72.6657
2180.5000	74.1107
2180.0000	76.4623
2179.5000	77.849
2179.0000	76.3625
2178.5000	74.718
2178.0000	73.386
2177.5000	74.901
2177.0000	76.7062
2176.5000	77.5557
2176.0000	76.5708
2175.5000	74.6859
2175.0000	74.3741
2174.5000	75.4565
2174.0000	77.7109
2173.5000	78.9521
2173.0000	77.7855
2172.5000	76.1409
2172.0000	74.3655
2171.5000	75.5187
2171.0000	77.2248
2170.5000	79.3144
2170.0000	78.5782
2169.5000	76.9965
2169.0000	75.6799
2168.5000	76.1385
2168.0000	78.1307
2167.5000	79.8638
2167.0000	79.7513
2166.5000	78.2412
2166.0000	76.6415
2165.5000	76.9312
2165.0000	78.8783
2164.5000	80.3996
2164.0000	80.4007
2163.5000	78.6838
2163.0000	77.3101
2162.5000	77.7913
2162.0000	79.6666
2161.5000	81.4366
2161.0000	81.4881
2160.5000	80.0944
2160.0000	78.4783
2159.5000	78.546
2159.0000	80.5053
2158.5000	81.8612
2158.0000	82.1378
2157.5000	80.7333
2157.0000	79.4224
2156.5000	79.5894
2156.0000	81.2432
2155.5000	82.8297
2155.0000	82.5298
2154.5000	81.2093
2154.0000	80.0004
2153.5000	80.5615
2153.0000	82.2118
2152.5000	83.4246
2152.0000	83.3249
2151.5000	81.9219
2151.0000	80.6107
2150.5000	80.961
2150.0000	82.7529
2149.5000	83.8479
2149.0000	83.8287
2148.5000	82.3245
2148.0000	81.632
2147.5000	81.4904
2147.0000	83.096
2146.5000	84.3655
2146.0000	84.6358
2145.5000	83.2173
2145.0000	82.1129
2144.5000	82.4414
2144.0000	84.2708
2143.5000	85.6353
2143.0000	85.3956
2142.5000	83.8834
2142.0000	82.5786
2141.5000	82.8194
2141.0000	84.301
2140.5000	85.9374
2140.0000	85.8057
2139.5000	84.6224
2139.0000	83.4905
2138.5000	83.914
2138.0000	85.223
2137.5000	86.0919
2137.0000	85.9676
2136.5000	84.57
2136.0000	83.4882
2135.5000	84.2923
2135.0000	85.4638
2134.5000	86.485
2134.0000	85.8864
2133.5000	84.7412
2133.0000	84.2634
2132.5000	85.1537
2132.0000	86.4022
2131.5000	86.8945
2131.0000	86.4566
2130.5000	85.0179
2130.0000	84.3098
2129.5000	84.8696
2129.0000	86.1573
2128.5000	86.7547
2128.0000	86.1618
2127.5000	85.0524
2127.0000	84.8236
2126.5000	85.5514
2126.0000	86.6807
2125.5000	86.8444
2125.0000	85.9829
2124.5000	85.2844
2124.0000	85.2607
2123.5000	86.1284
2123.0000	86.9413
2122.5000	86.8091
2122.0000	86.2486
2121.5000	85.0086
2121.0000	85.1809
2120.5000	86.0385
2120.0000	87.1939
2119.5000	86.6949
2119.0000	85.6224
2118.5000	84.6655
2118.0000	85.2823
2117.5000	86.3511
2117.0000	86.987
2116.5000	86.5268
2116.0000	85.517
2115.5000	84.9367
2115.0000	85.3279
2114.5000	86.4258
2114.0000	87.2734
2113.5000	86.3165
2113.0000	85.1763
2112.5000	84.4211
2112.0000	85.3747
2111.5000	86.3802
2111.0000	86.5402
2110.5000	85.5588
2110.0000	84.4785
2109.5000	83.8137
2109.0000	84.6072
2108.5000	85.532
2108.0000	85.9806
2107.5000	85.1919
2107.0000	84.2862
2106.5000	83.7677
2106.0000	84.7965
2105.5000	85.6914
2105.0000	85.5531
2104.5000	84.0707
2104.0000	83.119
2103.5000	83.0733
2103.0000	84.4982
2102.5000	85.3184
2102.0000	84.9166
2101.5000	83.1925
2101.0000	82.4761
2100.5000	83.0566
2100.0000	84.2036
2099.5000	84.4457
2099.0000	83.6655
2098.5000	82.6616
2098.0000	82.3547
2097.5000	83.0125
2097.0000	83.6839
2096.5000	83.2316
2096.0000	82.3047
2095.5000	81.0352
2095.0000	81.4431
2094.5000	82.2957
2094.0000	83.321
2093.5000	83.0993
2093.0000	81.5438
2092.5000	80.7793
2092.0000	81.3819
2091.5000	82.66
2091.0000	82.9952
2090.5000	81.7879
2090.0000	80.2319
2089.5000	80.1927
2089.0000	80.8743
2088.5000	82.0484
2088.0000	82.0221
2087.5000	80.6394
2087.0000	79.337
2086.5000	79.2419
2086.0000	80.3804
2085.5000	81.1176
2085.0000	80.6226
2084.5000	79.0763
2084.0000	78.4465
2083.5000	78.5034
2083.0000	79.8664
2082.5000	80.0491
2082.0000	79.1823
2081.5000	77.955
2081.0000	77.5485
2080.5000	78.6861
2080.0000	79.6326
2079.5000	79.299
2079.0000	77.8244
2078.5000	76.7346
2078.0000	76.9948
2077.5000	78.6497
2077.0000	79.6656
2076.5000	78.6963
2076.0000	76.9887
2075.5000	76.0823
2075.0000	76.7526
2074.5000	77.9994
2074.0000	78.2717
2073.5000	76.7263
2073.0000	75.4104
2072.5000	75.0629
2072.0000	76.0344
2071.5000	77.1504
2071.0000	76.771
2070.5000	75.5916
2070.0000	74.5721
2069.5000	74.9768
2069.0000	75.9609
2068.5000	76.4527
2068.0000	75.8992
2067.5000	74.5935
2067.0000	74.0871
2066.5000	74.7129
2066.0000	76.1811
2065.5000	76.4571
2065.0000	75.0999
2064.5000	73.6544
2064.0000	73.7516
2063.5000	74.7975
2063.0000	75.5719
2062.5000	74.6733
2062.0000	73.4859
2061.5000	72.8781
2061.0000	73.7277
2060.5000	74.6735
2060.0000	74.8554
2059.5000	73.774
2059.0000	72.413
2058.5000	72.4903
2058.0000	73.5274
2057.5000	74.5536
2057.0000	73.7164
2056.5000	72.5227
2056.0000	72.021
2055.5000	72.942
2055.0000	74.1441
2054.5000	74.019
2054.0000	72.903
2053.5000	71.3111
2053.0000	71.5196
2052.5000	72.7984
2052.0000	74.2838
2051.5000	73.9185
2051.0000	72.7473
2050.5000	71.4758
2050.0000	72.2612
2049.5000	73.1095
2049.0000	73.9834
2048.5000	72.5575
2048.0000	71.6741
2047.5000	71.1803
2047.0000	72.4614
2046.5000	73.4341
2046.0000	73.3524
2045.5000	71.8087
2045.0000	71.0295
2044.5000	71.4002
2044.0000	72.9383
2043.5000	73.0375
2043.0000	72.1683
2042.5000	70.733
2042.0000	70.86
2041.5000	71.9135
2041.0000	73.1412
2040.5000	72.6339
2040.0000	71.3002
2039.5000	70.6108
2039.0000	71.7513
2038.5000	72.7842
2038.0000	73.3375
2037.5000	72.1394
2037.0000	71.1072
2036.5000	71.1768
2036.0000	72.6772
2035.5000	73.2165
2035.0000	72.6882
2034.5000	71.3016
2034.0000	71.0321
2033.5000	72.1556
2033.0000	72.9324
2032.5000	73.0327
2032.0000	71.8345
2031.5000	71.5129
2031.0000	72.3357
2030.5000	73.5681
2030.0000	73.5266
2029.5000	72.5079
2029.0000	71.693
2028.5000	72.0792
2028.0000	72.9557
2027.5000	73.5826
2027.0000	72.7227
2026.5000	71.9998
2026.0000	72.0294
2025.5000	73.3485
2025.0000	74.2205
2024.5000	73.7341
2024.0000	72.6752
2023.5000	72.138
2023.0000	72.916
2022.5000	74.0152
2022.0000	74.4347
2021.5000	73.4831
2021.0000	72.6281
2020.5000	72.8322
2020.0000	73.7953
2019.5000	74.45
2019.0000	73.9262
2018.5000	73.479
2018.0000	73.4385
2017.5000	74.5709
2017.0000	75.1538
2016.5000	74.5634
2016.0000	73.6439
2015.5000	73.6192
2015.0000	74.6744
2014.5000	75.5709
2014.0000	75.4542
2013.5000	74.7243
2013.0000	74.0965
2012.5000	74.9635
2012.0000	76.2396
2011.5000	76.3373
2011.0000	75.9468
2010.5000	75.1135
2010.0000	75.5841
2009.5000	76.412
2009.0000	76.6975
2008.5000	76.0545
2008.0000	75.4646
2007.5000	75.8745
2007.0000	77.1698
2006.5000	77.7741
2006.0000	77.2491
2005.5000	76.4603
2005.0000	76.5057
2004.5000	77.9032
2004.0000	78.6209
2003.5000	78.7126
2003.0000	77.2284
2002.5000	76.7833
2002.0000	77.8901
2001.5000	78.7212
2001.0000	79.0107
2000.5000	78.3318
2000.0000	77.9943
1999.5000	78.7078
1999.0000	79.3535
1998.5000	79.5682
1998.0000	78.793
1997.5000	78.417
1997.0000	79.0166
1996.5000	80.0726
1996.0000	80.6313
1995.5000	79.8885
1995.0000	79.3398
1994.5000	79.4227
1994.0000	80.4324
1993.5000	81.1829
1993.0000	80.6133
1992.5000	79.8173
1992.0000	79.8796
1991.5000	80.7746
1991.0000	82.0145
1990.5000	81.7213
1990.0000	81.3688
1989.5000	81.2989
1989.0000	81.8921
1988.5000	82.3392
1988.0000	82.1466
1987.5000	81.5822
1987.0000	81.487
1986.5000	82.2205
1986.0000	82.9398
1985.5000	82.813
1985.0000	82.6418
1984.5000	82.4462
1984.0000	83.2838
1983.5000	83.7952
1983.0000	83.5609
1982.5000	82.8832
1982.0000	82.9999
1981.5000	83.7068
1981.0000	84.1076
1980.5000	83.5484
1980.0000	83.1506
1979.5000	83.0375
1979.0000	83.9398
1978.5000	84.8458
1978.0000	85.1048
1977.5000	84.5548
1977.0000	84.1816
1976.5000	84.5838
1976.0000	85.2609
1975.5000	85.2531
1975.0000	84.8653
1974.5000	84.6793
1974.0000	85.122
1973.5000	85.5206
1973.0000	85.4712
1972.5000	84.8926
1972.0000	84.6862
1971.5000	85.1207
1971.0000	85.7722
1970.5000	85.8776
1970.0000	85.3324
1969.5000	84.9823
1969.0000	85.6897
1968.5000	86.1489
1968.0000	86.4744
1967.5000	85.8032
1967.0000	85.2425
1966.5000	85.49
1966.0000	85.8376
1965.5000	86.1153
1965.0000	85.5972
1964.5000	85.4345
1964.0000	85.7035
1963.5000	86.1998
1963.0000	86.1617
1962.5000	85.5702
1962.0000	85.5764
1961.5000	86.2102
1961.0000	86.5941
1960.5000	86.3493
1960.0000	85.285
1959.5000	85.2327
1959.0000	85.5202
1958.5000	85.8864
1958.0000	85.8251
1957.5000	85.2437
1957.0000	85.2126
1956.5000	85.7517
1956.0000	85.9138
1955.5000	85.4888
1955.0000	84.9047
1954.5000	84.8402
1954.0000	85.017
1953.5000	85.2712
1953.0000	84.8452
1952.5000	84.4466
1952.0000	84.7303
1951.5000	85.0993
1951.0000	85.5229
1950.5000	84.7284
1950.0000	84.1479
1949.5000	83.9267
1949.0000	84.5201
1948.5000	84.4156
1948.0000	83.849
1947.5000	83.2328
1947.0000	83.1067
1946.5000	83.5
1946.0000	83.489
1945.5000	82.9925
1945.0000	82.6085
1944.5000	82.6456
1944.0000	83.2773
1943.5000	83.0365
1943.0000	82.4697
1942.5000	81.923
1942.0000	82.117
1941.5000	82.4168
1941.0000	82.2709
1940.5000	81.6792
1940.0000	81.3571
1939.5000	81.6798
1939.0000	81.6618
1938.5000	81.4345
1938.0000	80.533
1937.5000	80.263
1937.0000	81.0324
1936.5000	81.4837
1936.0000	81.5103
1935.5000	80.6248
1935.0000	80.531
1934.5000	80.707
1934.0000	80.8958
1933.5000	80.3277
1933.0000	79.4667
1932.5000	79.5218
1932.0000	79.9013
1931.5000	80.2235
1931.0000	79.8787
1930.5000	79.1314
1930.0000	79.0032
1929.5000	78.8866
1929.0000	78.8714
1928.5000	78.2488
1928.0000	77.6791
1927.5000	77.9742
1927.0000	78.108
1926.5000	78.6404
1926.0000	78.0265
1925.5000	77.5514
1925.0000	77.364
1924.5000	77.9544
1924.0000	77.8728
1923.5000	77.5379
1923.0000	76.999
1922.5000	77.4182
1922.0000	77.1345
1921.5000	76.5788
1921.0000	75.6893
1920.5000	75.3098
1920.0000	75.63
1919.5000	76.2543
1919.0000	76.118
1918.5000	75.7933
1918.0000	75.5462
1917.5000	75.9085
1917.0000	76.2754
1916.5000	75.9947
1916.0000	75.5376
1915.5000	75.3052
1915.0000	75.5107
1914.5000	75.51
1914.0000	75.1868
1913.5000	74.4359
1913.0000	74.35
1912.5000	74.8396
1912.0000	74.6396
1911.5000	74.2043
1911.0000	73.5813
1910.5000	74.2424
1910.0000	74.8713
1909.5000	75.0584
1909.0000	74.198
1908.5000	73.5771
1908.0000	73.4208
1907.5000	73.6339
1907.0000	72.8097
1906.5000	72.1644
1906.0000	71.9242
1905.5000	72.223
1905.0000	72.6706
1904.5000	72.736
1904.0000	71.9067
1903.5000	71.9715
1903.0000	72.5574
1902.5000	72.8808
1902.0000	72.9387
1901.5000	72.7896
1901.0000	73.2003
1900.5000	73.4437
1900.0000	73.5058
1899.5000	72.7212
1899.0000	72.1728
1898.5000	72.2621
1898.0000	72.569
1897.5000	72.4834
1897.0000	72.1268
1896.5000	71.9596
1896.0000	72.3189
1895.5000	72.7086
1895.0000	72.5341
1894.5000	72.0404
1894.0000	72.0559
1893.5000	72.6133
1893.0000	73.0216
1892.5000	73.1196
1892.0000	72.9341
1891.5000	73.2848
1891.0000	73.2856
1890.5000	73.0208
1890.0000	71.8444
1889.5000	71.8357
1889.0000	72.0736
1888.5000	72.5801
1888.0000	72.6553
1887.5000	72.2945
1887.0000	72.2416
1886.5000	72.2579
1886.0000	72.4631
1885.5000	72.2602
1885.0000	72.3484
1884.5000	72.5647
1884.0000	72.984
1883.5000	72.8932
1883.0000	72.7128
1882.5000	73.0072
1882.0000	73.2506
1881.5000	73.537
1881.0000	73.3664
1880.5000	73.0499
1880.0000	73.2706
1879.5000	73.3768
1879.0000	73.4529
1878.5000	72.9545
1878.0000	72.889
1877.5000	73.2501
1877.0000	73.8342
1876.5000	73.7522
1876.0000	73.455
1875.5000	73.385
1875.0000	73.4754
1874.5000	73.6481
1874.0000	73.172
1873.5000	73.2229
1873.0000	74.2077
1872.5000	75.0803
1872.0000	75.4055
1871.5000	75.2801
1871.0000	75.0475
1870.5000	75.4892
1870.0000	75.4701
1869.5000	75.656
1869.0000	75.5034
1868.5000	76.1288
1868.0000	76.3623
1867.5000	76.5613
1867.0000	76.5483
1866.5000	76.0835
1866.0000	76.6409
1865.5000	76.8895
1865.0000	77.4977
1864.5000	77.5152
1864.0000	77.6125
1863.5000	78.1926
1863.0000	78.0689
1862.5000	78.1286
1862.0000	77.8943
1861.5000	78.3955
1861.0000	78.6067
1860.5000	78.648
1860.0000	78.5932
1859.5000	78.5029
1859.0000	78.7229
1858.5000	78.8406
1858.0000	78.9818
1857.5000	79.0311
1857.0000	79.4355
1856.5000	80.0197
1856.0000	80.3855
1855.5000	80.4242
1855.0000	80.6762
1854.5000	80.5594
1854.0000	80.9034
1853.5000	80.9565
1853.0000	80.952
1852.5000	81.1632
1852.0000	81.4974
1851.5000	81.4261
1851.0000	81.4887
1850.5000	81.2326
1850.0000	81.6724
1849.5000	82.1828
1849.0000	82.4738
1848.5000	83.0763
1848.0000	83.42
1847.5000	83.4565
1847.0000	83.0705
1846.5000	82.7675
1846.0000	82.6689
1845.5000	83.0593
1845.0000	83.3104
1844.5000	83.3768
1844.0000	83.3948
1843.5000	83.7374
1843.0000	84.4762
1842.5000	84.4615
1842.0000	84.6764
1841.5000	84.5844
1841.0000	85.0551
1840.5000	85.2052
1840.0000	85.0061
1839.5000	85.3658
1839.0000	85.7022
1838.5000	85.6758
1838.0000	85.5375
1837.5000	85.2155
1837.0000	85.3783
1836.5000	85.1989
1836.0000	84.9732
1835.5000	84.8553
1835.0000	85.1242
1834.5000	85.6054
1834.0000	85.4376
1833.5000	85.4895
1833.0000	85.4819
1832.5000	85.7949
1832.0000	85.8129
1831.5000	85.6648
1831.0000	85.4671
1830.5000	85.5993
1830.0000	85.5505
1829.5000	85.4719
1829.0000	85.2466
1828.5000	85.2012
1828.0000	85.1447
1827.5000	84.9711
1827.0000	85.435
1826.5000	85.8476
1826.0000	86.1226
1825.5000	86.1187
1825.0000	85.9058
1824.5000	85.9315
1824.0000	85.9471
1823.5000	85.8778
1823.0000	85.6267
1822.5000	85.4838
1822.0000	85.6878
1821.5000	85.6576
1821.0000	85.7129
1820.5000	85.5312
1820.0000	85.3843
1819.5000	85.51
1819.0000	85.2806
1818.5000	84.9823
1818.0000	84.6376
1817.5000	84.4959
1817.0000	84.2442
1816.5000	84.1577
1816.0000	84.0899
1815.5000	84.2273
1815.0000	84.1574
1814.5000	83.9291
1814.0000	83.7386
1813.5000	83.7418
1813.0000	83.7472
1812.5000	83.4173
1812.0000	83.211
1811.5000	83.136
1811.0000	83.0204
1810.5000	82.868
1810.0000	82.6089
1809.5000	82.6273
1809.0000	82.7258
1808.5000	82.7704
1808.0000	82.2806
1807.5000	82.236
1807.0000	82.1575
1806.5000	81.9319
1806.0000	81.2167
1805.5000	80.8577
1805.0000	80.8791
1804.5000	80.7578
1804.0000	80.5705
1803.5000	80.4767
1803.0000	80.4109
1802.5000	80.5956
1802.0000	80.3143
1801.5000	80.1082
1801.0000	79.7719
1800.5000	79.5649
1800.0000	79.2593
1799.5000	79.1403
1799.0000	78.9199
1798.5000	78.9232
1798.0000	78.55
1797.5000	78.2661
1797.0000	78.1309
1796.5000	78.128
1796.0000	78.0706
1795.5000	77.6599
1795.0000	77.219
1794.5000	77.0519
1794.0000	77.0599
1793.5000	77.0632
1793.0000	77.0223
1792.5000	76.7359
1792.0000	76.5468
1791.5000	76.0882
1791.0000	76.2293
1790.5000	76.1341
1790.0000	76.0002
1789.5000	75.6393
1789.0000	75.1168
1788.5000	75.3706
1788.0000	75.4583
1787.5000	75.3291
1787.0000	75.0425
1786.5000	74.8723
1786.0000	74.763
1785.5000	74.552
1785.0000	74.2327
1784.5000	74.2038
1784.0000	74.2288
1783.5000	74.0178
1783.0000	73.7756
1782.5000	73.6215
1782.0000	73.6934
1781.5000	73.6674
1781.0000	73.5298
1780.5000	73.4621
1780.0000	73.3576
1779.5000	73.1217
1779.0000	73.1721
1778.5000	72.9653
1778.0000	72.8712
1777.5000	72.6946
1777.0000	72.5168
1776.5000	72.4725
1776.0000	72.4646
1775.5000	72.292
1775.0000	72.3336
1774.5000	72.4725
1774.0000	72.2857
1773.5000	72.3018
1773.0000	71.9723
1772.5000	72.0439
1772.0000	71.9077
1771.5000	72.0646
1771.0000	71.9171
1770.5000	72.1287
1770.0000	71.9771
1769.5000	71.9906
1769.0000	71.7737
1768.5000	71.7668
1768.0000	71.6801
1767.5000	71.6437
1767.0000	71.6826
1766.5000	71.6351
1766.0000	71.7261
1765.5000	71.7506
1765.0000	71.7602
1764.5000	71.7497
1764.0000	71.726
1763.5000	71.8319
1763.0000	71.9324
1762.5000	71.9641
1762.0000	71.9749
1761.5000	72.2475
1761.0000	72.3039
1760.5000	72.1956
1760.0000	71.9948
1759.5000	72.075
1759.0000	72.1608
1758.5000	72.3222
1758.0000	72.3362
1757.5000	72.5049
1757.0000	72.4935
1756.5000	72.6207
1756.0000	72.717
1755.5000	72.889
1755.0000	72.9503
1754.5000	73.0349
1754.0000	73.059
1753.5000	73.1346
1753.0000	73.3922
1752.5000	73.503
1752.0000	73.6195
1751.5000	73.796
1751.0000	73.7783
1750.5000	73.8229
1750.0000	74.0304
1749.5000	74.2338
1749.0000	74.3172
1748.5000	74.3038
1748.0000	74.5106
1747.5000	74.7863
1747.0000	75.061
1746.5000	75.1911
1746.0000	75.3598
1745.5000	75.3844
1745.0000	75.655
1744.5000	75.6234
1744.0000	75.8488
1743.5000	75.9953
1743.0000	76.1417
1742.5000	76.3407
1742.0000	76.4155
1741.5000	76.5726
1741.0000	76.9681
1740.5000	77.1012
1740.0000	77.3604
1739.5000	77.4698
1739.0000	77.6534
1738.5000	77.8761
1738.0000	78.0421
1737.5000	78.3168
1737.0000	78.4539
1736.5000	78.5739
1736.0000	78.8319
1735.5000	78.8977
1735.0000	79.2976
1734.5000	79.4135
1734.0000	79.7501
1733.5000	79.8077
1733.0000	80.035
1732.5000	80.1105
1732.0000	80.4373
1731.5000	80.6854
1731.0000	80.8341
1730.5000	80.8693
1730.0000	81.0156
1729.5000	81.3096
1729.0000	81.6205
1728.5000	81.779
1728.0000	82.2112
1727.5000	82.3908
1727.0000	82.5511
1726.5000	82.579
1726.0000	82.6026
1725.5000	82.8516
1725.0000	83.0998
1724.5000	83.1657
1724.0000	83.3257
1723.5000	83.4918
1723.0000	83.5998
1722.5000	83.8013
1722.0000	83.913
1721.5000	83.9553
1721.0000	84.103
1720.5000	84.2488
1720.0000	84.5907
1719.5000	84.8013
1719.0000	84.681
1718.5000	84.8036
1718.0000	84.8893
1717.5000	85.1638
1717.0000	85.3037
1716.5000	85.4588
1716.0000	85.5936
1715.5000	85.6382
1715.0000	85.5007
1714.5000	85.5855
1714.0000	85.5862
1713.5000	85.8087
1713.0000	85.8089
1712.5000	85.8001
1712.0000	85.924
1711.5000	86.0273
1711.0000	86.1321
1710.5000	85.9752
1710.0000	85.9991
1709.5000	85.749
1709.0000	85.8749
1708.5000	85.9485
1708.0000	86.0363
1707.5000	86.0012
1707.0000	86.0573
1706.5000	85.903
1706.0000	86.0233
1705.5000	85.9848
1705.0000	85.7816
1704.5000	85.7671
1704.0000	85.4966
1703.5000	85.4802
1703.0000	85.4733
1702.5000	85.6535
1702.0000	85.6782
1701.5000	85.711
1701.0000	85.3455
1700.5000	85.1041
1700.0000	85.0835
1699.5000	84.9773
1699.0000	84.7891
1698.5000	84.5375
1698.0000	84.4342
1697.5000	84.077
1697.0000	83.9683
1696.5000	83.8861
1696.0000	83.8596
1695.5000	83.6648
1695.0000	83.4686
1694.5000	82.9896
1694.0000	83.0139
1693.5000	83.0699
1693.0000	83.2505
1692.5000	83.0473
1692.0000	82.7315
1691.5000	82.3105
1691.0000	82.0788
1690.5000	81.6884
1690.0000	81.4581
1689.5000	81.3213
1689.0000	81.2458
1688.5000	81.2041
1688.0000	81.1595
1687.5000	80.8212
1687.0000	80.3978
1686.5000	80.1542
1686.0000	80.0417
1685.5000	79.9729
1685.0000	79.7325
1684.5000	79.4465
1684.0000	79.1955
1683.5000	78.9862
1683.0000	78.9045
1682.5000	78.6173
1682.0000	78.666
1681.5000	78.3674
1681.0000	78.1551
1680.5000	77.7842
1680.0000	77.5633
1679.5000	77.4318
1679.0000	77.2084
1678.5000	76.9789
1678.0000	76.9105
1677.5000	76.5975
1677.0000	76.3503
1676.5000	76.2136
1676.0000	76.2153
1675.5000	76.0634
1675.0000	75.6317
1674.5000	75.7119
1674.0000	75.4281
1673.5000	75.2149
1673.0000	75.1716
1672.5000	74.9147
1672.0000	75.0197
1671.5000	74.7124
1671.0000	74.6119
1670.5000	74.4297
1670.0000	74.373
1669.5000	74.2334
1669.0000	73.8841
1668.5000	73.9538
1668.0000	73.7443
1667.5000	73.5608
1667.0000	73.4495
1666.5000	73.4325
1666.0000	73.5
1665.5000	73.3815
1665.0000	73.2294
1664.5000	73.1535
1664.0000	73.0492
1663.5000	72.9998
1663.0000	72.8427
1662.5000	72.5433
1662.0000	72.4759
1661.5000	72.444
1661.0000	72.4878
1660.5000	72.4441
1660.0000	72.4131
1659.5000	72.4016
1659.0000	72.4463
1658.5000	72.3252
1658.0000	72.3821
1657.5000	72.2694
1657.0000	72.1462
1656.5000	72.0472
1656.0000	72.1194
1655.5000	72.0717
1655.0000	72.1091
1654.5000	71.9907
1654.0000	72.2048
1653.5000	72.0143
1653.0000	72.2315
1652.5000	72.405
1652.0000	72.4172
1651.5000	72.3613
1651.0000	72.2435
1650.5000	72.398
1650.0000	72.4737
1649.5000	72.5727
1649.0000	72.6834
1648.5000	72.6916
1648.0000	72.7579
1647.5000	72.8293
1647.0000	72.9235
1646.5000	72.9744
1646.0000	73.0241
1645.5000	73.2008
1645.0000	73.4365
1644.5000	73.4834
1644.0000	73.6783
1643.5000	73.8141
1643.0000	74.0956
1642.5000	74.1965
1642.0000	74.2422
1641.5000	74.166
1641.0000	74.1898
1640.5000	74.1323
1640.0000	74.3552
1639.5000	74.518
1639.0000	74.6939
1638.5000	75.0003
1638.0000	75.3122
1637.5000	75.5403
1637.0000	75.7451
1636.5000	75.7976
1636.0000	75.6706
1635.5000	75.8186
1635.0000	76.1472
1634.5000	76.5819
1634.0000	76.9459
1633.5000	77.2678
1633.0000	77.509
1632.5000	77.5747
1632.0000	77.5469
1631.5000	77.7372
1631.0000	77.9058
1630.5000	78.2023
1630.0000	78.4032
1629.5000	78.489
1629.0000	78.8303
1628.5000	78.9422
1628.0000	79.334
1627.5000	79.4781
1627.0000	79.7888
1626.5000	79.9872
1626.0000	80.3175
1625.5000	80.4674
1625.0000	80.6145
1624.5000	80.7842
1624.0000	81.1164
1623.5000	81.4211
1623.0000	81.3688
1622.5000	81.6443
1622.0000	81.8684
1621.5000	82.3174
1621.0000	82.3225
1620.5000	82.5302
1620.0000	82.4957
1619.5000	82.6602
1619.0000	82.9537
1618.5000	83.1352
1618.0000	83.3924
1617.5000	83.6392
1617.0000	83.7486
1616.5000	83.8699
1616.0000	83.967
1615.5000	84.2179
1615.0000	84.3867
1614.5000	84.5253
1614.0000	84.5589
1613.5000	84.5947
1613.0000	84.8865
1612.5000	85.217
1612.0000	85.2761
1611.5000	85.3043
1611.0000	85.2022
1610.5000	85.33
1610.0000	85.446
1609.5000	85.4331
1609.0000	85.4885
1608.5000	85.4148
1608.0000	85.772
1607.5000	85.8368
1607.0000	85.7399
1606.5000	85.5693
1606.0000	85.4607
1605.5000	85.7202
1605.0000	85.4961
1604.5000	85.6282
1604.0000	85.6365
1603.5000	85.8255
1603.0000	85.8316
1602.5000	85.6837
1602.0000	85.5038
1601.5000	85.555
1601.0000	85.3539
1600.5000	85.1808
1600.0000	84.9365
1599.5000	84.8763
1599.0000	85.1155
1598.5000	85.1518
1598.0000	85.4345
1597.5000	85.4392
1597.0000	85.4594
1596.5000	85.1781
1596.0000	84.8509
1595.5000	84.3846
1595.0000	83.9815
1594.5000	83.7321
1594.0000	83.3651
1593.5000	83.1602
1593.0000	83.2954
1592.5000	83.269
1592.0000	83.1552
1591.5000	82.8881
1591.0000	82.5319
1590.5000	82.4267
1590.0000	82.079
1589.5000	81.8324
1589.0000	81.5238
1588.5000	81.3278
1588.0000	81.0434
1587.5000	80.9297
1587.0000	80.6469
1586.5000	80.6707
1586.0000	80.4524
1585.5000	80.2059
1585.0000	79.947
1584.5000	79.6141
1584.0000	79.4911
1583.5000	79.2257
1583.0000	79.0003
1582.5000	78.8135
1582.0000	78.5172
1581.5000	78.2165
1581.0000	77.9633
1580.5000	77.8891
1580.0000	77.8095
1579.5000	77.4915
1579.0000	77.1963
1578.5000	76.9764
1578.0000	76.7527
1577.5000	76.5741
1577.0000	76.3837
1576.5000	76.3082
1576.0000	76.1641
1575.5000	75.7765
1575.0000	75.526
1574.5000	75.2284
1574.0000	75.1249
1573.5000	74.8732
1573.0000	74.6416
1572.5000	74.48
1572.0000	74.3482
1571.5000	74.4121
1571.0000	74.2827
1570.5000	74.0719
1570.0000	73.8091
1569.5000	73.4905
1569.0000	73.4847
1568.5000	73.4303
1568.0000	73.4256
1567.5000	73.269
1567.0000	73.2539
1566.5000	73.01
1566.0000	72.8143
1565.5000	72.7909
1565.0000	72.5697
1564.5000	72.6679
1564.0000	72.5426
1563.5000	72.6018
1563.0000	72.4052
1562.5000	72.3874
1562.0000	72.2051
1561.5000	72.1975
1561.0000	72.1664
1560.5000	72.1538
1560.0000	72.0143
1559.5000	72.1047
1559.0000	72.1129
1558.5000	72.2297
1558.0000	72.153
1557.5000	72.0581
1557.0000	71.9461
1556.5000	71.8291
1556.0000	71.7849
1555.5000	71.9071
1555.0000	72.039
1554.5000	72.2633
1554.0000	72.4447
1553.5000	72.7065
1553.0000	72.5274
1552.5000	72.525
1552.0000	72.4599
1551.5000	72.6843
1551.0000	72.8939
1550.5000	73.033
1550.0000	73.1808
1549.5000	73.3871
1549.0000	73.4998
1548.5000	73.5128
1548.0000	73.5235
1547.5000	73.5179
1547.0000	73.7202
1546.5000	73.8416
1546.0000	74.1043
1545.5000	74.2602
1545.0000	74.5986
1544.5000	74.5804
1544.0000	74.7185
1543.5000	74.762
1543.0000	75.1308
1542.5000	75.3368
1542.0000	75.6588
1541.5000	75.8504
1541.0000	75.9456
1540.5000	76.4239
1540.0000	76.4829
1539.5000	76.7681
1539.0000	76.774
1538.5000	77.1398
1538.0000	77.3077
1537.5000	77.6514
1537.0000	77.7832
1536.5000	78.2195
1536.0000	78.2666
1535.5000	78.5987
1535.0000	78.6312
1534.5000	79.0198
1534.0000	79.2579
1533.5000	79.3637
1533.0000	79.5817
1532.5000	79.9902
1532.0000	80.3236
1531.5000	80.6348
1531.0000	80.6683
1530.5000	80.8676
1530.0000	81.0983
1529.5000	81.5462
1529.0000	81.8735
1528.5000	82.0827
1528.0000	82.2521
1527.5000	82.2679
1527.0000	82.6692
1526.5000	83.0136
1526.0000	83.2109
1525.5000	83.3358
1525.0000	83.6146
1524.5000	83.7557
1524.0000	84.0313
1523.5000	84.0165
1523.0000	84.2197
1522.5000	84.4263
1522.0000	84.6451
1521.5000	84.8697
1521.0000	84.8653
1520.5000	85.0997
1520.0000	85.2543
1519.5000	85.4476
1519.0000	85.5504
1518.5000	85.5299
1518.0000	85.5813
1517.5000	85.6231
1517.0000	85.8489
1516.5000	85.9926
1516.0000	85.9529
1515.5000	85.9872
1515.0000	85.871
1514.5000	85.8868
1514.0000	85.7797
1513.5000	85.9269
1513.0000	86.0158
1512.5000	86.0267
1512.0000	85.8059
1511.5000	85.7493
1511.0000	85.6227
1510.5000	85.5459
1510.0000	85.587
1509.5000	85.5355
1509.0000	85.5415
1508.5000	85.4293
1508.0000	85.2906
1507.5000	85.1911
1507.0000	85.086
1506.5000	84.8648
1506.0000	84.6595
1505.5000	84.5154
1505.0000	84.4339
1504.5000	84.1018
1504.0000	84.0157
1503.5000	83.8589
1503.0000	83.6462
1502.5000	83.6082
1502.0000	83.3143
1501.5000	83.0773
1501.0000	82.894
1500.5000	82.5229
1500.0000	82.4491
1499.5000	82.0569
1499.0000	81.8988
1498.5000	81.6583
1498.0000	81.4434
1497.5000	81.1833
1497.0000	81.0045
1496.5000	80.6537
1496.0000	80.2936
1495.5000	79.874
1495.0000	79.7923
1494.5000	79.6049
1494.0000	79.4507
1493.5000	79.2382
1493.0000	78.8805
1492.5000	78.678
1492.0000	78.4561
1491.5000	78.0653
1491.0000	77.7144
1490.5000	77.3819
1490.0000	77.0641
1489.5000	76.8123
1489.0000	76.6335
1488.5000	76.5171
1488.0000	76.3853
1487.5000	76.1667
1487.0000	75.8245
1486.5000	75.5148
1486.0000	75.3021
1485.5000	75.1107
1485.0000	74.8718
1484.5000	74.7055
1484.0000	74.5303
1483.5000	74.3012
1483.0000	73.864
1482.5000	73.9512
1482.0000	73.7323
1481.5000	73.6886
1481.0000	73.4588
1480.5000	73.2277
1480.0000	73.0649
1479.5000	72.9354
1479.0000	72.8978
1478.5000	72.6969
1478.0000	72.6191
1477.5000	72.463
1477.0000	72.383
1476.5000	72.3813
1476.0000	72.4634
1475.5000	72.1578
1475.0000	72.0851
1474.5000	71.761
1474.0000	71.663
1473.5000	71.7514
1473.0000	71.8464
1472.5000	71.9441
1472.0000	71.9038
1471.5000	71.8446
1471.0000	71.886
1470.5000	71.8668
1470.0000	71.6236
1469.5000	71.8072
1469.0000	71.8666
1468.5000	71.892
1468.0000	71.9117
1467.5000	71.8782
1467.0000	72.0027
1466.5000	72.3042
1466.0000	72.3409
1465.5000	72.3508
1465.0000	72.4219
1464.5000	72.5011
1464.0000	72.8361
1463.5000	72.8055
1463.0000	72.9514
1462.5000	73.105
1462.0000	73.4012
1461.5000	73.442
1461.0000	73.5735
1460.5000	73.6112
1460.0000	73.7576
1459.5000	74.1332
1459.0000	74.4012
1458.5000	74.4278
1458.0000	74.6318
1457.5000	74.8973
1457.0000	75.2922
1456.5000	75.6639
1456.0000	75.7199
1455.5000	75.9497
1455.0000	76.0449
1454.5000	76.2453
1454.0000	76.736
1453.5000	76.9151
1453.0000	77.1917
1452.5000	77.4513
1452.0000	77.6307
1451.5000	77.9107
1451.0000	78.0909
1450.5000	78.3597
1450.0000	78.7801
1449.5000	79.088
1449.0000	79.2657
1448.5000	79.5968
1448.0000	79.8994
1447.5000	80.1626
1447.0000	80.3883
1446.5000	80.5041
1446.0000	80.9036
1445.5000	81.2263
1445.0000	81.5044
1444.5000	81.5746
1444.0000	81.8707
1443.5000	82.2673
1443.0000	82.5297
1442.5000	82.6981
1442.0000	82.8885
1441.5000	83.1691
1441.0000	83.3303
1440.5000	83.5893
1440.0000	83.8823
1439.5000	84.1394
1439.0000	84.4922
1438.5000	84.3372
1438.0000	84.4658
1437.5000	84.5697
1437.0000	84.7635
1436.5000	85.0042
1436.0000	85.1826
1435.5000	85.2187
1435.0000	85.2552
1434.5000	85.2874
1434.0000	85.5169
1433.5000	85.6585
1433.0000	85.6971
1432.5000	85.8071
1432.0000	85.6482
1431.5000	85.6478
1431.0000	85.6869
1430.5000	85.4828
1430.0000	85.4492
1429.5000	85.5329
1429.0000	85.5406
1428.5000	85.5563
1428.0000	85.4717
1427.5000	85.265
1427.0000	85.1916
1426.5000	84.9764
1426.0000	84.9003
1425.5000	84.8119
1425.0000	84.5051
1424.5000	84.4558
1424.0000	84.3915
1423.5000	84.2657
1423.0000	84.173
1422.5000	83.6104
1422.0000	83.4208
1421.5000	83.1432
1421.0000	82.9097
1420.5000	82.7417
1420.0000	82.4794
1419.5000	82.3974
1419.0000	82.304
1418.5000	81.8774
1418.0000	81.6618
1417.5000	81.2236
1417.0000	80.9506
1416.5000	80.7277
1416.0000	80.3764
1415.5000	80.1792
1415.0000	79.7842
1414.5000	79.4519
1414.0000	79.2526
1413.5000	79.0179
1413.0000	78.9182
1412.5000	78.7462
1412.0000	78.4356
1411.5000	78.1786
1411.0000	77.6598
1410.5000	77.2223
1410.0000	77.0508
1409.5000	76.7206
1409.0000	76.5608
1408.5000	76.1069
1408.0000	75.9004
1407.5000	75.7534
1407.0000	75.4661
1406.5000	75.451
1406.0000	75.1176
1405.5000	74.8436
1405.0000	74.7227
1404.5000	74.4644
1404.0000	74.2959
1403.5000	74.1205
1403.0000	73.6987
1402.5000	73.506
1402.0000	73.2554
1401.5000	73.2583
1401.0000	73.1423
1400.5000	72.9937
1400.0000	72.9943
1399.5000	72.8873
1399.0000	72.7481
1398.5000	72.878
1398.0000	72.606
1397.5000	72.8035
1397.0000	72.5592
1396.5000	72.509
1396.0000	72.4623
1395.5000	72.3826
1395.0000	72.4996
1394.5000	72.4404
1394.0000	72.4619
1393.5000	72.3559
1393.0000	72.1954
1392.5000	72.1584
1392.0000	72.1848
1391.5000	72.1565
1391.0000	72.129
1390.5000	72.1137
1390.0000	72.1165
1389.5000	72.3267
1389.0000	72.5459
1388.5000	72.8203
1388.0000	73.0227
1387.5000	73.2333
1387.0000	73.3736
1386.5000	73.5672
1386.0000	73.7272
1385.5000	73.6337
1385.0000	73.9055
1384.5000	74.0007
1384.0000	74.1303
1383.5000	74.2556
1383.0000	74.2586
1382.5000	74.6415
1382.0000	74.8778
1381.5000	75.2053
1381.0000	75.6785
1380.5000	75.8601
1380.0000	76.0093
1379.5000	76.0448
1379.0000	76.2118
1378.5000	76.6331
1378.0000	76.9778
1377.5000	77.5119
1377.0000	77.6689
1376.5000	78.028
1376.0000	78.4088
1375.5000	78.6839
1375.0000	79.1187
1374.5000	79.3708
1374.0000	79.5491
1373.5000	79.7429
1373.0000	80.0669
1372.5000	80.5411
1372.0000	80.7269
1371.5000	81.1837
1371.0000	81.523
1370.5000	81.8308
1370.0000	82.259
1369.5000	82.1784
1369.0000	82.4194
1368.5000	82.3564
1368.0000	82.5157
1367.5000	82.82
1367.0000	83.0749
1366.5000	83.486
1366.0000	83.681
1365.5000	83.852
1365.0000	83.9373
1364.5000	84.2298
1364.0000	84.5072
1363.5000	84.8195
1363.0000	84.7409
1362.5000	84.772
1362.0000	84.9484
1361.5000	85.0448
1361.0000	85.2389
1360.5000	85.3829
1360.0000	85.5218
1359.5000	85.7159
1359.0000	85.6451
1358.5000	85.5987
1358.0000	85.6092
1357.5000	85.4827
1357.0000	85.7122
1356.5000	85.5433
1356.0000	85.66
1355.5000	85.2947
1355.0000	85.0919
1354.5000	85.0668
1354.0000	84.8638
1353.5000	84.8275
1353.0000	84.5611
1352.5000	84.3448
1352.0000	84.1907
1351.5000	83.9379
1351.0000	83.8363
1350.5000	83.533
1350.0000	83.4201
1349.5000	83.2174
1349.0000	83.0064
1348.5000	82.6673
1348.0000	82.1371
1347.5000	81.9093
1347.0000	81.4923
1346.5000	81.1943
1346.0000	81.0309
1345.5000	80.7637
1345.0000	80.6501
1344.5000	80.1682
1344.0000	79.8405
1343.5000	79.5279
1343.0000	79.3497
1342.5000	79.0692
1342.0000	78.8776
1341.5000	78.3716
1341.0000	77.9702
1340.5000	77.6821
1340.0000	77.3485
1339.5000	77.1112
1339.0000	76.7256
1338.5000	76.3588
1338.0000	76.147
1337.5000	75.9049
1337.0000	75.6307
1336.5000	75.2574
1336.0000	74.9509
1335.5000	74.7458
1335.0000	74.4545
1334.5000	74.2653
1334.0000	74.071
1333.5000	74.0163
1333.0000	73.7234
1332.5000	73.4071
1332.0000	73.2123
1331.5000	73.0779
1331.0000	73.0523
1330.5000	72.8045
1330.0000	72.7
1329.5000	72.3674
1329.0000	72.3523
1328.5000	72.2067
1328.0000	72.1554
1327.5000	72.2395
1327.0000	72.0418
1326.5000	72.0178
1326.0000	71.8988
1325.5000	71.8332
1325.0000	71.7207
1324.5000	71.7681
1324.0000	71.7595
1323.5000	71.7527
1323.0000	71.8402
1322.5000	71.7482
1322.0000	71.901
1321.5000	71.9353
1321.0000	72.0975
1320.5000	72.2911
1320.0000	72.3259
1319.5000	72.4548
1319.0000	72.5496
1318.5000	72.7575
1318.0000	72.7359
1317.5000	73.0187
1317.0000	73.1473
1316.5000	73.5223
1316.0000	73.7468
1315.5000	73.9473
1315.0000	74.2448
1314.5000	74.4363
1314.0000	74.611
1313.5000	74.8444
1313.0000	75.0737
1312.5000	75.4051
1312.0000	75.6493
1311.5000	75.783
1311.0000	76.2024
1310.5000	76.5528
1310.0000	76.918
1309.5000	77.196
1309.0000	77.5882
1308.5000	78.0367
1308.0000	78.2859
1307.5000	78.7235
1307.0000	79.0545
1306.5000	79.3594
1306.0000	79.7781
1305.5000	80.0854
1305.0000	80.4781
1304.5000	80.664
1304.0000	80.9729
1303.5000	81.2017
1303.0000	81.5888
1302.5000	81.8854
1302.0000	82.1501
1301.5000	82.5226
1301.0000	82.6759
1300.5000	83.0549
1300.0000	83.376
1299.5000	83.5883
1299.0000	83.9277
1298.5000	84.0988
1298.0000	84.3204
1297.5000	84.485
1297.0000	84.6692
1296.5000	84.8073
1296.0000	84.9053
1295.5000	85.121
1295.0000	85.4296
1294.5000	85.5299
1294.0000	85.7258
1293.5000	85.6489
1293.0000	85.8172
1292.5000	85.7205
1292.0000	85.7151
1291.5000	85.4988
1291.0000	85.5053
1290.5000	85.5516
1290.0000	85.4697
1289.5000	85.4676
1289.0000	85.2573
1288.5000	85.0632
1288.0000	84.9885
1287.5000	84.7435
1287.0000	84.5849
1286.5000	84.4355
1286.0000	84.2143
1285.5000	84.0966
1285.0000	83.8025
1284.5000	83.503
1284.0000	83.3006
1283.5000	83.0771
1283.0000	82.7735
1282.5000	82.369
1282.0000	82.0599
1281.5000	81.7742
1281.0000	81.4349
1280.5000	81.0813
1280.0000	80.8093
1279.5000	80.4536
1279.0000	80.1556
1278.5000	79.6893
1278.0000	79.4465
1277.5000	78.9742
1277.0000	78.6714
1276.5000	78.2844
1276.0000	78.1661
1275.5000	77.7146
1275.0000	77.3515
1274.5000	76.8904
1274.0000	76.473
1273.5000	76.1724
1273.0000	75.9528
1272.5000	75.8493
1272.0000	75.4724
1271.5000	75.1663
1271.0000	74.8355
1270.5000	74.5055
1270.0000	74.1743
1269.5000	73.9012
1269.0000	73.7113
1268.5000	73.5084
1268.0000	73.245
1267.5000	73.0696
1267.0000	72.8596
1266.5000	72.6998
1266.0000	72.5701
1265.5000	72.3775
1265.0000	72.2238
1264.5000	72.0978
1264.0000	71.9245
1263.5000	71.9404
1263.0000	71.9165
1262.5000	71.9909
1262.0000	71.9506
1261.5000	71.9482
1261.0000	71.8698
1260.5000	71.6996
1260.0000	71.7227
1259.5000	71.8417
1259.0000	71.9361
1258.5000	71.9921
1258.0000	72.3235
1257.5000	72.4285
1257.0000	72.5334
1256.5000	72.4927
1256.0000	72.6225
1255.5000	72.8215
1255.0000	73.0274
1254.5000	73.1977
1254.0000	73.4156
1253.5000	73.7609
1253.0000	74.0454
1252.5000	74.1302
1252.0000	74.5149
1251.5000	74.8138
1251.0000	75.1822
1250.5000	75.4951
1250.0000	75.7429
1249.5000	75.9372
1249.0000	76.1933
1248.5000	76.5609
1248.0000	76.8891
1247.5000	77.3092
1247.0000	77.6554
1246.5000	78.0278
1246.0000	78.3894
1245.5000	78.8198
1245.0000	79.1856
1244.5000	79.6185
1244.0000	80.0179
1243.5000	80.3002
1243.0000	80.5343
1242.5000	80.9491
1242.0000	81.318
1241.5000	81.7158
1241.0000	82.0137
1240.5000	82.2628
1240.0000	82.4533
1239.5000	82.7991
1239.0000	83.2045
1238.5000	83.6079
1238.0000	83.9077
1237.5000	84.1684
1237.0000	84.3598
1236.5000	84.4204
1236.0000	84.5371
1235.5000	84.8176
1235.0000	85.0365
1234.5000	85.0929
1234.0000	85.1114
1233.5000	85.1339
1233.0000	85.1775
1232.5000	85.3198
1232.0000	85.4105
1231.5000	85.4032
1231.0000	85.4827
1230.5000	85.3131
1230.0000	85.2094
1229.5000	85.1184
1229.0000	84.949
1228.5000	84.8672
1228.0000	84.5576
1227.5000	84.4719
1227.0000	84.206
1226.5000	84.0656
1226.0000	83.7561
1225.5000	83.5262
1225.0000	83.1992
1224.5000	82.9418
1224.0000	82.6159
1223.5000	82.2728
1223.0000	81.8893
1222.5000	81.5074
1222.0000	81.1663
1221.5000	80.7668
1221.0000	80.334
1220.5000	79.9848
1220.0000	79.7117
1219.5000	79.369
1219.0000	78.9035
1218.5000	78.5482
1218.0000	78.1357
1217.5000	77.7155
1217.0000	77.2766
1216.5000	76.9202
1216.0000	76.5653
1215.5000	76.2307
1215.0000	75.8552
1214.5000	75.6158
1214.0000	75.2571
1213.5000	75.0356
1213.0000	74.6418
1212.5000	74.4791
1212.0000	74.1085
1211.5000	73.8132
1211.0000	73.6212
1210.5000	73.3325
1210.0000	73.2605
1209.5000	72.9713
1209.0000	72.7697
1208.5000	72.4261
1208.0000	72.1738
1207.5000	72.1986
1207.0000	72.2413
1206.5000	72.2089
1206.0000	72.0416
1205.5000	71.9648
1205.0000	71.7828
1204.5000	71.8752
1204.0000	71.9041
1203.5000	71.9118
1203.0000	71.9309
1202.5000	71.9787
1202.0000	72.0747
1201.5000	72.2589
1201.0000	72.3359
1200.5000	72.4776
1200.0000	72.5869
1199.5000	72.8613
1199.0000	73.0977
1198.5000	73.3261
1198.0000	73.4828
1197.5000	73.7578
1197.0000	74.0227
1196.5000	74.2816
1196.0000	74.588
1195.5000	74.945
1195.0000	75.3407
1194.5000	75.5882
1194.0000	76.0195
1193.5000	76.3401
1193.0000	76.6891
1192.5000	76.935
1192.0000	77.2832
1191.5000	77.7285
1191.0000	78.1054
1190.5000	78.5931
1190.0000	78.9631
1189.5000	79.4506
1189.0000	79.8149
1188.5000	80.2637
1188.0000	80.5214
1187.5000	80.9774
1187.0000	81.312
1186.5000	81.6856
1186.0000	82.1761
1185.5000	82.332
1185.0000	82.748
1184.5000	83.0152
1184.0000	83.4185
1183.5000	83.7401
1183.0000	83.9521
1182.5000	84.1244
1182.0000	84.425
1181.5000	84.6622
1181.0000	84.8897
1180.5000	85.1248
1180.0000	85.1937
1179.5000	85.273
1179.0000	85.3152
1178.5000	85.3318
1178.0000	85.2383
1177.5000	85.3505
1177.0000	85.3977
1176.5000	85.3828
1176.0000	85.3723
1175.5000	85.146
1175.0000	84.9435
1174.5000	84.6688
1174.0000	84.4264
1173.5000	84.1454
1173.0000	84.052
1172.5000	83.7733
1172.0000	83.7089
1171.5000	83.2622
1171.0000	82.9823
1170.5000	82.6442
1170.0000	82.2093
1169.5000	81.7353
1169.0000	81.4333
1168.5000	80.9946
1168.0000	80.5284
1167.5000	80.0364
1167.0000	79.5954
1166.5000	79.1556
1166.0000	78.8471
1165.5000	78.5561
1165.0000	78.0574
1164.5000	77.6707
1164.0000	77.2274
1163.5000	76.7692
1163.0000	76.4085
1162.5000	75.909
1162.0000	75.6044
1161.5000	75.1435
1161.0000	74.7525
1160.5000	74.4326
1160.0000	74.1613
1159.5000	73.8419
1159.0000	73.5173
1158.5000	73.2636
1158.0000	73.1108
1157.5000	72.9438
1157.0000	72.7561
1156.5000	72.3951
1156.0000	72.2751
1155.5000	72.1489
1155.0000	72.085
1154.5000	71.8631
1154.0000	71.7175
1153.5000	71.6798
1153.0000	71.6499
1152.5000	71.4644
1152.0000	71.397
1151.5000	71.5066
1151.0000	71.7254
1150.5000	71.9778
1150.0000	72.1106
1149.5000	72.1307
1149.0000	72.1796
1148.5000	72.283
1148.0000	72.4485
1147.5000	72.6664
1147.0000	72.9064
1146.5000	73.2003
1146.0000	73.5892
1145.5000	73.9118
1145.0000	74.2801
1144.5000	74.5828
1144.0000	74.9154
1143.5000	75.2502
1143.0000	75.607
1142.5000	76.0611
1142.0000	76.5339
1141.5000	76.909
1141.0000	77.2986
1140.5000	77.6709
1140.0000	78.1861
1139.5000	78.5426
1139.0000	78.9155
1138.5000	79.3044
1138.0000	79.6959
1137.5000	80.2526
1137.0000	80.7687
1136.5000	81.232
1136.0000	81.5869
1135.5000	82.0549
1135.0000	82.4171
1134.5000	82.8753
1134.0000	83.1771
1133.5000	83.5129
1133.0000	83.8305
1132.5000	83.9567
1132.0000	84.1259
1131.5000	84.4361
1131.0000	84.6868
1130.5000	84.9384
1130.0000	85.0213
1129.5000	85.1611
1129.0000	85.1991
1128.5000	85.3967
1128.0000	85.374
1127.5000	85.3138
1127.0000	85.0633
1126.5000	84.9117
1126.0000	84.8899
1125.5000	84.8133
1125.0000	84.7084
1124.5000	84.4416
1124.0000	84.2313
1123.5000	83.8609
1123.0000	83.5534
1122.5000	83.1561
1122.0000	82.8875
1121.5000	82.5119
1121.0000	82.1491
1120.5000	81.6935
1120.0000	81.3308
1119.5000	80.8249
1119.0000	80.5244
1118.5000	80.0289
1118.0000	79.7167
1117.5000	79.3138
1117.0000	78.8514
1116.5000	78.3255
1116.0000	77.8034
1115.5000	77.3954
1115.0000	77.0109
1114.5000	76.5567
1114.0000	76.081
1113.5000	75.6138
1113.0000	75.1976
1112.5000	74.8865
1112.0000	74.4456
1111.5000	74.0412
1111.0000	73.7799
1110.5000	73.545
1110.0000	73.4599
1109.5000	73.0952
1109.0000	72.8404
1108.5000	72.5764
1108.0000	72.3691
1107.5000	72.2266
1107.0000	72.0571
1106.5000	71.9955
1106.0000	71.8754
1105.5000	71.9176
1105.0000	71.8827
1104.5000	71.9122
1104.0000	72.0131
1103.5000	72.015
1103.0000	71.9883
1102.5000	72.1025
1102.0000	72.2411
1101.5000	72.4831
1101.0000	72.5687
1100.5000	72.7131
1100.0000	72.8011
1099.5000	73.1039
1099.0000	73.5144
1098.5000	73.826
1098.0000	74.1424
1097.5000	74.4505
1097.0000	74.9469
1096.5000	75.3285
1096.0000	75.6788
1095.5000	76.1193
1095.0000	76.4904
1094.5000	76.938
1094.0000	77.3691
1093.5000	77.8944
1093.0000	78.3651
1092.5000	78.9047
1092.0000	79.3155
1091.5000	79.7102
1091.0000	80.1487
1090.5000	80.606
1090.0000	81.1907
1089.5000	81.674
1089.0000	82.0049
1088.5000	82.5163
1088.0000	82.7957
1087.5000	83.1964
1087.0000	83.4737
1086.5000	83.6683
1086.0000	83.9475
1085.5000	84.1865
1085.0000	84.4837
1084.5000	84.6091
1084.0000	84.7449
1083.5000	84.8019
1083.0000	85.009
1082.5000	85.0834
1082.0000	85.0037
1081.5000	84.9625
1081.0000	84.9244
1080.5000	84.8757
1080.0000	84.7177
1079.5000	84.3323
1079.0000	84.0879
1078.5000	83.7407
1078.0000	83.4351
1077.5000	83.192
1077.0000	82.899
1076.5000	82.6269
1076.0000	82.2568
1075.5000	81.7376
1075.0000	81.2452
1074.5000	80.7558
1074.0000	80.363
1073.5000	79.7846
1073.0000	79.3339
1072.5000	78.8357
1072.0000	78.3463
1071.5000	77.8301
1071.0000	77.4271
1070.5000	76.8996
1070.0000	76.4718
1069.5000	76.0013
1069.0000	75.5916
1068.5000	75.1402
1068.0000	74.7593
1067.5000	74.3218
1067.0000	74.0033
1066.5000	73.6674
1066.0000	73.3476
1065.5000	73.0157
1065.0000	72.8265
1064.5000	72.6482
1064.0000	72.4456
1063.5000	72.1996
1063.0000	72.0548
1062.5000	71.8577
1062.0000	71.6657
1061.5000	71.5824
1061.0000	71.5976
1060.5000	71.6585
1060.0000	71.7909
1059.5000	72.0128
1059.0000	71.9537
1058.5000	72.0285
1058.0000	72.1629
1057.5000	72.4465
1057.0000	72.6837
1056.5000	72.7986
1056.0000	73.1083
1055.5000	73.4968
1055.0000	73.871
1054.5000	74.2149
1054.0000	74.6315
1053.5000	75.086
1053.0000	75.5464
1052.5000	76.011
1052.0000	76.3829
1051.5000	77.0456
1051.0000	77.5931
1050.5000	77.9228
1050.0000	78.4334
1049.5000	79.0779
1049.0000	79.6113
1048.5000	80.2027
1048.0000	80.585
1047.5000	81.0988
1047.0000	81.391
1046.5000	81.8897
1046.0000	82.2621
1045.5000	82.7556
1045.0000	83.1226
1044.5000	83.6066
1044.0000	83.8707
1043.5000	84.2372
1043.0000	84.3106
1042.5000	84.4293
1042.0000	84.6967
1041.5000	84.8902
1041.0000	85.0822
1040.5000	85.2097
1040.0000	85.1433
1039.5000	85.0532
1039.0000	84.8679
1038.5000	84.7599
1038.0000	84.5313
1037.5000	84.2791
1037.0000	83.8752
1036.5000	83.5468
1036.0000	83.1354
1035.5000	82.7226
1035.0000	82.3838
1034.5000	81.9603
1034.0000	81.542
1033.5000	81.0981
1033.0000	80.6569
1032.5000	80.0993
1032.0000	79.6314
1031.5000	79.0465
1031.0000	78.4803
1030.5000	77.882
1030.0000	77.2584
1029.5000	76.79
1029.0000	76.2883
1028.5000	75.7803
1028.0000	75.2796
1027.5000	74.8328
1027.0000	74.4591
1026.5000	74.1054
1026.0000	73.7325
1025.5000	73.3947
1025.0000	73.0785
1024.5000	72.7733
1024.0000	72.4515
1023.5000	72.275
1023.0000	72.0625
1022.5000	71.8918
1022.0000	71.6423
1021.5000	71.5129
1021.0000	71.4834
1020.5000	71.4612
1020.0000	71.5541
1019.5000	71.7025
1019.0000	71.852
1018.5000	72.0293
1018.0000	72.1909
1017.5000	72.3791
1017.0000	72.5507
1016.5000	72.9286
1016.0000	73.2852
1015.5000	73.6043
1015.0000	73.9474
1014.5000	74.3873
1014.0000	74.7772
1013.5000	75.3018
1013.0000	75.8414
1012.5000	76.2951
1012.0000	76.7862
1011.5000	77.253
1011.0000	77.7677
1010.5000	78.391
1010.0000	78.99
1009.5000	79.6279
1009.0000	80.19
1008.5000	80.6954
1008.0000	81.1971
1007.5000	81.6747
1007.0000	82.1298
1006.5000	82.3921
1006.0000	82.987
1005.5000	83.4201
1005.0000	83.8694
1004.5000	84.2001
1004.0000	84.364
1003.5000	84.5413
1003.0000	84.7208
1002.5000	84.9019
1002.0000	84.9945
1001.5000	84.781
1001.0000	84.7095
1000.5000	84.5489
1000.0000	84.3946
999.5000	84.079
999.0000	83.9426
998.5000	83.6529
998.0000	83.3228
997.5000	82.8612
997.0000	82.5029
996.5000	82.0995
996.0000	81.7979
995.5000	81.1545
995.0000	80.651
994.5000	79.978
994.0000	79.3455
993.5000	78.5686
993.0000	78.0656
992.5000	77.5231
992.0000	76.9305
991.5000	76.4737
991.0000	75.9689
990.5000	75.3811
990.0000	75.0026
989.5000	74.2588
989.0000	73.9066
988.5000	73.6064
988.0000	73.3062
987.5000	72.9614
987.0000	72.7154
986.5000	72.3915
986.0000	72.2558
985.5000	71.9914
985.0000	71.7851
984.5000	71.6686
984.0000	71.7258
983.5000	71.7379
983.0000	71.7555
982.5000	71.754
982.0000	71.7895
981.5000	72.0934
981.0000	72.4542
980.5000	72.7109
980.0000	72.9435
979.5000	73.1873
979.0000	73.55
978.5000	73.7771
978.0000	74.1246
977.5000	74.6584
977.0000	75.4856
976.5000	75.7405
976.0000	76.3738
975.5000	76.7376
975.0000	77.4432
974.5000	77.8229
974.0000	78.5524
973.5000	79.0072
973.0000	79.5762
972.5000	80.2297
972.0000	80.7455
971.5000	81.5244
971.0000	82.0647
970.5000	82.3956
970.0000	82.8132
969.5000	83.2352
969.0000	83.7779
968.5000	83.8754
968.0000	84.212
967.5000	84.3593
967.0000	84.4665
966.5000	84.7843
966.0000	84.9282
965.5000	84.9442
965.0000	84.9022
964.5000	84.4531
964.0000	84.1032
963.5000	83.6764
963.0000	83.3082
962.5000	82.9887
962.0000	82.7142
961.5000	82.093
961.0000	81.6543
960.5000	80.9375
960.0000	80.6112
959.5000	79.9269
959.0000	79.425
958.5000	78.6838
958.0000	78.0924
957.5000	77.6359
957.0000	77.0599
956.5000	76.2869
956.0000	75.772
955.5000	75.2983
955.0000	74.8871
954.5000	74.2751
954.0000	73.9055
953.5000	73.4878
953.0000	73.061
952.5000	72.58
952.0000	72.2144
951.5000	72.199
951.0000	71.7862
950.5000	71.4658
950.0000	71.2732
949.5000	71.4107
949.0000	71.4582
948.5000	71.7654
948.0000	71.8076
947.5000	71.9756
947.0000	72.1865
946.5000	72.2895
946.0000	72.7104
945.5000	72.9353
945.0000	73.2408
944.5000	73.8158
944.0000	74.0912
943.5000	74.7441
943.0000	75.2744
942.5000	75.6757
942.0000	76.1085
941.5000	76.6907
941.0000	77.3361
940.5000	78.1769
940.0000	78.734
939.5000	79.2221
939.0000	79.8561
938.5000	80.5828
938.0000	81.1268
937.5000	81.7735
937.0000	82.294
936.5000	82.6471
936.0000	82.8046
935.5000	83.319
935.0000	83.7194
934.5000	84.2347
934.0000	84.3314
933.5000	84.5178
933.0000	84.4452
932.5000	84.6934
932.0000	84.5141
931.5000	84.4703
931.0000	84.2732
930.5000	84.0396
930.0000	83.5935
929.5000	82.9404
929.0000	82.6577
928.5000	82.2296
928.0000	81.7237
927.5000	81.0936
927.0000	80.467
926.5000	79.8458
926.0000	79.1645
925.5000	78.5772
925.0000	77.8814
924.5000	77.3803
924.0000	76.8928
923.5000	76.1948
923.0000	75.7032
922.5000	75.1482
922.0000	74.3639
921.5000	73.8911
921.0000	73.1616
920.5000	72.8686
920.0000	72.8503
919.5000	72.5793
919.0000	72.5129
918.5000	72.1923
918.0000	71.6146
917.5000	71.3451
917.0000	70.9386
916.5000	71.1052
916.0000	71.3822
915.5000	71.8314
915.0000	72.068
914.5000	72.1859
914.0000	72.4395
913.5000	72.7848
913.0000	73.4187
912.5000	74.1628
912.0000	74.5753
911.5000	75.0381
911.0000	75.4621
910.5000	76.2073
910.0000	76.7167
909.5000	77.31
909.0000	77.8001
908.5000	78.3699
908.0000	79.1944
907.5000	79.8689
907.0000	80.4889
906.5000	80.8706
906.0000	81.4417
905.5000	82.2953
905.0000	83.0216
904.5000	83.3779
904.0000	83.8122
903.5000	84.1117
903.0000	84.464
902.5000	84.1675
902.0000	84.338
901.5000	84.3592
901.0000	84.1547
900.5000	83.9125
900.0000	83.6922
899.5000	83.224
899.0000	83.0235
898.5000	82.6691
898.0000	82.3007
897.5000	81.6372
897.0000	80.9537
896.5000	80.1523
896.0000	79.5712
895.5000	79.0265
895.0000	78.1339
894.5000	77.5193
894.0000	77.0753
893.5000	76.9372
893.0000	76.1837
892.5000	75.4362
892.0000	74.9076
891.5000	74.5193
891.0000	74.2171
890.5000	73.4474
890.0000	72.6331
889.5000	72.1948
889.0000	71.8018
888.5000	71.9063
888.0000	72.0412
887.5000	72.0021
887.0000	71.6378
886.5000	71.5145
886.0000	71.5319
885.5000	71.9612
885.0000	72.0195
884.5000	72.4609
884.0000	72.7104
883.5000	73.4001
883.0000	73.9757
882.5000	74.1969
882.0000	74.4581
881.5000	74.6916
881.0000	75.5385
880.5000	76.49
880.0000	77.3536
879.5000	78.3286
879.0000	78.7329
878.5000	79.6732
878.0000	79.8372
877.5000	80.3639
877.0000	80.9663
876.5000	82.0427
876.0000	82.781
875.5000	83.0076
875.0000	83.1894
874.5000	83.2027
874.0000	83.6566
873.5000	83.7559
873.0000	84.1464
872.5000	84.2601
872.0000	84.2037
871.5000	84.3023
871.0000	83.4205
870.5000	83.0933
870.0000	82.7206
869.5000	82.7913
869.0000	82.1138
868.5000	81.3179
868.0000	80.3232
867.5000	80.1929
867.0000	79.9199
866.5000	79.0198
866.0000	77.9031
865.5000	76.8313
865.0000	76.5298
864.5000	75.9179
864.0000	75.1391
863.5000	74.506
863.0000	74.2965
862.5000	73.4896
862.0000	73.4056
861.5000	72.8105
861.0000	72.6955
860.5000	72.2901
860.0000	71.8527
859.5000	71.6229
859.0000	71.5229
858.5000	71.294
858.0000	71.6354
857.5000	71.8106
857.0000	72.4051
856.5000	72.2857
856.0000	73.0487
855.5000	73.5517
855.0000	73.7721
854.5000	73.8716
854.0000	74.5329
853.5000	75.1267
853.0000	75.9725
852.5000	76.9473
852.0000	77.3575
851.5000	78.1989
851.0000	79.3779
850.5000	80.1907
850.0000	76.9984
849.5000	77.7403
849.0000	78.3538
848.5000	79.6306
848.0000	80.5038
847.5000	81.1557
847.0000	81.8379
846.5000	82.7669
846.0000	83.0417
845.5000	83.2944
845.0000	83.2232
844.5000	83.8726
844.0000	83.9926
843.5000	84.6991
843.0000	84.3663
842.5000	84.5411
842.0000	83.9854
841.5000	83.8493
841.0000	83.3126
840.5000	82.6946
840.0000	82.1477
839.5000	81.5518
839.0000	80.912
838.5000	80.3631
838.0000	80.072
837.5000	79.3239
837.0000	78.6476
836.5000	77.9021
836.0000	76.7909
835.5000	75.6997
835.0000	74.6383
834.5000	73.8976
834.0000	73.3787
833.5000	72.9784
833.0000	72.5593
832.5000	72.479
832.0000	72.2008
831.5000	72.0802
831.0000	71.9204
830.5000	71.6698
830.0000	71.714
829.5000	71.5911
829.0000	72.211
828.5000	72.2721
828.0000	72.8993
827.5000	73.2407
827.0000	73.8304
826.5000	74.503
826.0000	75.0318
825.5000	75.5072
825.0000	76.2145
824.5000	76.5737
824.0000	77.6672
823.5000	78.5654
823.0000	79.5234
822.5000	80.1379
822.0000	81.0725
821.5000	81.9055
821.0000	82.6185
820.5000	83.1368
820.0000	83.3339
819.5000	83.9298
819.0000	84.0794
818.5000	83.8944
818.0000	83.875
817.5000	84.0099
817.0000	84.6284
816.5000	84.1494
816.0000	83.5039
815.5000	82.4921
815.0000	81.5862
814.5000	80.7426
814.0000	80.4809
813.5000	80.0258
813.0000	79.9217
812.5000	79.2457
812.0000	78.0683
811.5000	76.666
811.0000	75.7085
810.5000	75.2949
810.0000	75.0531
809.5000	74.3986
809.0000	73.6068
808.5000	72.9358
808.0000	72.6566
807.5000	72.3035
807.0000	72.1241
806.5000	71.8263
806.0000	71.7026
805.5000	71.4801
805.0000	71.9142
804.5000	72.303
804.0000	73.0488
803.5000	72.8499
803.0000	73.3354
802.5000	74.1299
802.0000	74.8937
801.5000	75.626
801.0000	76.0662
800.5000	77.1466
800.0000	78.2217
799.5000	79.2039
799.0000	79.6897
798.5000	80.2912
798.0000	81.1636
797.5000	81.7286
797.0000	82.1879
796.5000	82.7131
796.0000	83.2582
795.5000	83.4172
795.0000	83.5977
794.5000	83.6602
794.0000	83.5377
793.5000	83.654
793.0000	83.3692
792.5000	83.2138
792.0000	82.7178
791.5000	82.2682
791.0000	81.6695
790.5000	80.7575
790.0000	80.0159
789.5000	79.228
789.0000	78.2764
788.5000	77.4636
788.0000	76.3148
787.5000	75.4444
787.0000	74.9854
786.5000	74.3686
786.0000	73.7625
785.5000	72.8394
785.0000	72.3769
784.5000	71.9069
784.0000	71.6867
783.5000	71.4412
783.0000	71.7525
782.5000	71.988
782.0000	72.0305
781.5000	72.2504
781.0000	72.4169
780.5000	73.0322
780.0000	73.6589
779.5000	74.6185
779.0000	75.1175
778.5000	75.9415
778.0000	77.1386
777.5000	77.8361
777.0000	78.6767
776.5000	79.4989
776.0000	80.5392
775.5000	81.4748
775.0000	82.1241
774.5000	82.8409
774.0000	83.0495
773.5000	83.3953
773.0000	83.7713
772.5000	83.8578
772.0000	83.7425
771.5000	83.5307
771.0000	83.2202
770.5000	83.0665
770.0000	82.5104
769.5000	82.6292
769.0000	81.6033
768.5000	80.8676
768.0000	79.8799
767.5000	78.9272
767.0000	77.8584
766.5000	77.1715
766.0000	76.6756
765.5000	75.6649
765.0000	74.9148
764.5000	74.4772
764.0000	73.8
763.5000	72.9643
763.0000	72.6506
762.5000	72.0589
762.0000	71.758
761.5000	72.0534
761.0000	72.0503
760.5000	71.8263
760.0000	72.1615
759.5000	72.2981
759.0000	72.413
758.5000	73.3045
758.0000	74.3478
757.5000	75.4004
757.0000	76.5281
756.5000	77.258
756.0000	77.8854
755.5000	79.2522
755.0000	79.8987
754.5000	80.7655
754.0000	81.392
753.5000	81.9541
753.0000	82.7922
752.5000	83.3606
752.0000	83.4519
751.5000	83.9674
751.0000	83.9863
750.5000	83.8657
750.0000	83.9667
749.5000	83.1163
749.0000	82.7906
748.5000	82.1897
748.0000	81.3639
747.5000	80.8276
747.0000	79.2547
746.5000	78.3604
746.0000	77.2546
745.5000	76.3654
745.0000	75.6938
744.5000	74.4914
744.0000	73.8842
743.5000	73.2198
743.0000	72.7163
742.5000	72.6977
742.0000	72.1144
741.5000	72.1006
741.0000	71.8144
740.5000	71.8693
740.0000	72.229
739.5000	72.1966
739.0000	73.155
738.5000	73.5923
738.0000	74.5566
737.5000	75.1936
737.0000	75.5851
736.5000	76.5765
736.0000	77.4886
735.5000	78.8593
735.0000	79.8738
734.5000	80.7741
734.0000	81.5277
733.5000	82.1072
733.0000	82.9153
732.5000	83.2545
732.0000	83.7989
731.5000	83.8482
731.0000	84.0056
730.5000	83.6731
730.0000	83.1095
729.5000	82.8604
729.0000	82.0895
728.5000	81.7673
728.0000	80.5289
727.5000	79.7758
727.0000	78.5286
726.5000	77.5446
726.0000	76.4928
725.5000	75.3712
725.0000	74.4761
724.5000	73.5839
724.0000	73.0088
723.5000	72.3592
723.0000	72.0935
722.5000	71.7449
722.0000	71.8909
721.5000	71.8683
721.0000	72.4313
720.5000	72.5373
720.0000	73.1351
719.5000	73.4387
719.0000	74.3099
718.5000	74.8169
718.0000	75.6497
717.5000	76.3175
717.0000	77.4355
716.5000	78.4429
716.0000	79.582
715.5000	80.5494
715.0000	81.5574
714.5000	82.3386
714.0000	82.9109
713.5000	83.1773
713.0000	83.4289
712.5000	83.5242
712.0000	83.6256
711.5000	83.5247
711.0000	83.0665
710.5000	82.4219
710.0000	81.644
709.5000	80.6082
709.0000	79.5987
708.5000	78.5125
708.0000	77.3578
707.5000	76.1539
707.0000	75.1729
706.5000	74.224
706.0000	73.4415
705.5000	72.9815
705.0000	72.248
704.5000	71.9863
704.0000	71.8681
703.5000	71.8331
703.0000	71.8769
702.5000	72.0743
702.0000	72.5159
701.5000	73.3151
701.0000	73.897
700.5000	74.822
700.0000	75.8522
699.5000	76.8785
699.0000	78.034
698.5000	78.927
698.0000	79.9313
697.5000	80.8773
697.0000	81.8038
696.5000	82.6337
696.0000	83.1002
695.5000	83.3327
695.0000	83.5245
694.5000	83.4468
694.0000	83.2029
693.5000	82.8378
693.0000	82.0607
692.5000	81.2657
692.0000	80.0956
691.5000	79.0718
691.0000	78.2147
690.5000	76.9491
690.0000	76.0966
689.5000	74.9771
689.0000	74.0579
688.5000	73.361
688.0000	72.672
687.5000	72.1252
687.0000	71.8989
686.5000	71.5852
686.0000	71.4299
685.5000	71.7309
685.0000	72.2321
684.5000	72.9509
684.0000	73.6549
683.5000	74.3676
683.0000	75.3838
682.5000	76.6206
682.0000	77.7509
681.5000	79.1113
681.0000	80.03
680.5000	80.9426
680.0000	81.9142
679.5000	82.6006
679.0000	82.9897
678.5000	83.4151
678.0000	83.5666
677.5000	83.3197
677.0000	82.9664
676.5000	82.5926
676.0000	81.5879
675.5000	80.6914
675.0000	79.7148
674.5000	78.4512
674.0000	77.2272
673.5000	76.1919
673.0000	75.1585
672.5000	74.1253
672.0000	73.2448
671.5000	72.6433
671.0000	72.0365
670.5000	71.8017
670.0000	71.8001
669.5000	71.9567
669.0000	72.0424
668.5000	72.6545
668.0000	73.5568
667.5000	74.4319
667.0000	75.3407
666.5000	76.3535
666.0000	77.6152
665.5000	78.7774
665.0000	79.8091
664.5000	80.8439
664.0000	81.7361
663.5000	82.4754
663.0000	82.8651
662.5000	83.315
662.0000	83.4712
661.5000	83.2156
661.0000	82.5962
660.5000	81.7757
660.0000	80.9172
659.5000	79.8617
659.0000	78.9011
658.5000	77.7022
658.0000	76.6355
657.5000	75.5606
657.0000	74.54
656.5000	73.5021
656.0000	72.6515
655.5000	72.1417
655.0000	71.8359
654.5000	71.9036
654.0000	72.1334
653.5000	72.4313
653.0000	72.9791
652.5000	73.6191
652.0000	74.6394
651.5000	75.6375
651.0000	76.781
650.5000	77.9393
650.0000	79.0039
649.5000	80.0382
649.0000	81.0062
648.5000	82.023
648.0000	82.6728
647.5000	83.1638
647.0000	83.1992
646.5000	82.9561
646.0000	82.467
645.5000	81.7886
645.0000	80.8557
644.5000	79.6595
644.0000	78.5746
643.5000	77.3244
643.0000	76.2549
642.5000	75.1449
642.0000	74.2148
641.5000	73.252
641.0000	72.4276
640.5000	71.9132
640.0000	71.7356
639.5000	71.9639
639.0000	72.1718
638.5000	72.5749
638.0000	73.2605
637.5000	74.3225
637.0000	75.5107
636.5000	76.8031
636.0000	77.9744
635.5000	79.0555
635.0000	80.2037
634.5000	81.1016
634.0000	82.0227
633.5000	82.7132
633.0000	83.0447
632.5000	83.0155
632.0000	82.6434
631.5000	82.1436
631.0000	81.2987
630.5000	80.4064
630.0000	79.1357
629.5000	77.9422
629.0000	76.7187
628.5000	75.2836
628.0000	74.0488
627.5000	72.9773
627.0000	72.26
626.5000	71.8141
626.0000	71.6244
625.5000	71.6242
625.0000	71.9983
624.5000	72.7064
624.0000	73.5111
623.5000	74.401
623.0000	75.4347
622.5000	76.6436
622.0000	78.0804
621.5000	79.2985
621.0000	80.6621
620.5000	81.503
620.0000	82.2284
619.5000	82.6774
619.0000	82.7439
618.5000	82.5306
618.0000	81.8471
617.5000	81.0992
617.0000	80.145
616.5000	79.1123
616.0000	77.9504
615.5000	76.625
615.0000	75.3845
614.5000	74.147
614.0000	73.1302
613.5000	72.3082
613.0000	71.8527
612.5000	71.6859
612.0000	71.844
611.5000	72.1367
611.0000	72.7446
610.5000	73.7473
610.0000	74.9684
609.5000	76.2591
609.0000	77.5258
608.5000	78.9213
608.0000	80.2205
607.5000	81.25
607.0000	81.9506
606.5000	82.3245
606.0000	82.5377
605.5000	82.2803
605.0000	81.7219
604.5000	80.9129
604.0000	79.8318
603.5000	78.7797
603.0000	77.4084
602.5000	76.105
602.0000	74.7696
601.5000	73.5625
601.0000	72.7656
600.5000	72.1651
600.0000	72.0758
599.5000	71.9179
599.0000	72.2127
598.5000	72.6404
598.0000	73.4863
597.5000	74.4744
597.0000	75.9875
596.5000	77.5401
596.0000	78.9592
595.5000	80.1296
595.0000	81.0885
594.5000	81.9715
594.0000	82.2947
593.5000	82.4089
593.0000	82.0702
592.5000	81.4497
592.0000	80.5677
591.5000	79.3627
591.0000	78.1211
590.5000	76.6505
590.0000	75.2156
589.5000	73.8818
589.0000	72.9178
588.5000	72.2174
588.0000	71.7119
587.5000	71.5862
587.0000	71.9279
586.5000	72.5206
586.0000	73.428
585.5000	74.6318
585.0000	76.1479
584.5000	77.4847
584.0000	78.8912
583.5000	80.0379
583.0000	81.3656
582.5000	82.0554
582.0000	82.3342
581.5000	82.1801
581.0000	81.6545
580.5000	80.7765
580.0000	79.7031
579.5000	78.5028
579.0000	76.9674
578.5000	75.6286
578.0000	74.2373
577.5000	73.1104
577.0000	72.2038
576.5000	71.7942
576.0000	71.7347
575.5000	71.9706
575.0000	72.5356
574.5000	73.4724
574.0000	74.6729
573.5000	76.2107
573.0000	77.5695
572.5000	79.0269
572.0000	80.2464
571.5000	81.3731
571.0000	82.1556
570.5000	82.2869
570.0000	81.9245
569.5000	81.1808
569.0000	80.2377
568.5000	79.1416
568.0000	77.6346
567.5000	76.1135
567.0000	74.6566
566.5000	73.4835
566.0000	72.6557
565.5000	71.8513
565.0000	71.5374
564.5000	71.5624
564.0000	72.2117
563.5000	73.1581
563.0000	74.4977
562.5000	75.9851
562.0000	77.4961
561.5000	78.9871
561.0000	80.3331
560.5000	81.3344
560.0000	81.8446
559.5000	81.9015
559.0000	81.5546
558.5000	80.7287
558.0000	79.6336
557.5000	78.1062
557.0000	76.5689
556.5000	74.9763
556.0000	73.6464
555.5000	72.5568
555.0000	71.9283
554.5000	71.6393
554.0000	71.7736
553.5000	72.2893
553.0000	73.2191
552.5000	74.5464
552.0000	76.1822
551.5000	77.803
551.0000	79.3184
550.5000	80.5541
550.0000	81.3172
549.5000	81.7363
549.0000	81.632
548.5000	81.1287
548.0000	80.1453
547.5000	78.6265
547.0000	76.9518
546.5000	75.2053
546.0000	73.8786
545.5000	72.7092
545.0000	71.7857
544.5000	71.4409
544.0000	71.6762
543.5000	72.4032
543.0000	73.4119
542.5000	74.6845
542.0000	76.1921
541.5000	77.7743
541.0000	79.3871
540.5000	80.4297
540.0000	81.1452
539.5000	81.1571
539.0000	81.0305
538.5000	80.3532
538.0000	79.3396
537.5000	77.7164
537.0000	76.2248
536.5000	74.6002
536.0000	73.3473
535.5000	72.2993
535.0000	71.6809
534.5000	71.6574
534.0000	71.9889
533.5000	72.9865
533.0000	74.3383
532.5000	76.0014
532.0000	77.483
531.5000	79.0554
531.0000	80.2455
530.5000	81.0108
530.0000	81.0888
529.5000	80.8709
529.0000	79.9923
528.5000	78.8226
528.0000	77.4808
527.5000	75.9042
527.0000	74.1685
526.5000	72.7001
526.0000	71.701
525.5000	71.5072
525.0000	71.5736
524.5000	72.3894
524.0000	73.4238
523.5000	74.9612
523.0000	76.4997
522.5000	78.0315
522.0000	79.3526
521.5000	80.4827
521.0000	81.0239
520.5000	80.8533
520.0000	80.0913
519.5000	78.9259
519.0000	77.3004
518.5000	75.6578
518.0000	74.0696
517.5000	72.7557
517.0000	71.9324
516.5000	71.515
516.0000	71.6759
515.5000	72.3292
515.0000	73.532
514.5000	75.1217
514.0000	76.9447
513.5000	78.5339
513.0000	79.8386
512.5000	80.5646
512.0000	80.7572
511.5000	80.247
511.0000	79.2346
510.5000	77.8622
510.0000	76.0212
509.5000	74.2098
509.0000	72.6799
508.5000	71.8342
508.0000	71.5156
507.5000	71.6547
507.0000	72.386
506.5000	73.8489
506.0000	75.5301
505.5000	77.2534
505.0000	78.5358
504.5000	79.7094
504.0000	80.4806
503.5000	80.4938
503.0000	79.8988
502.5000	78.354
502.0000	76.6342
501.5000	74.7827
501.0000	73.2342
500.5000	71.9515
500.0000	71.5349
499.5000	71.5244
499.0000	72.5093
498.5000	73.5767
498.0000	75.236
497.5000	76.8001
497.0000	78.407
496.5000	79.5492
496.0000	80.1498
495.5000	79.7647
495.0000	79.086
494.5000	77.8211
494.0000	76.1601
493.5000	74.1824
493.0000	72.4391
492.5000	71.4145
492.0000	71.2208
491.5000	71.7041
491.0000	72.7442
490.5000	74.3516
490.0000	76.1127
489.5000	77.7575
489.0000	79.1492
488.5000	79.8887
488.0000	80.0067
487.5000	79.1724
487.0000	77.6479
486.5000	75.886
486.0000	74.051
485.5000	72.5851
485.0000	71.6453
484.5000	71.2997
484.0000	71.7311
483.5000	72.6759
483.0000	73.9833
482.5000	75.8292
482.0000	77.6923
481.5000	79.1892
481.0000	79.8901
480.5000	79.6418
480.0000	78.6287
479.5000	77.0618
479.0000	75.2119
478.5000	73.4436
478.0000	72.0518
477.5000	71.3432
477.0000	71.3528
476.5000	72.0753
476.0000	73.3908
475.5000	75.1744
475.0000	76.9679
474.5000	78.5433
474.0000	79.5272
473.5000	79.4228
473.0000	78.7008
472.5000	77.2965
472.0000	75.4687
471.5000	73.5824
471.0000	72.1467
470.5000	71.4786
470.0000	71.484
469.5000	72.3499
469.0000	73.7135
468.5000	75.3586
468.0000	77.0702
467.5000	78.5578
467.0000	79.2738
466.5000	79.0204
466.0000	77.7865
465.5000	76.2373
465.0000	74.4577
464.5000	72.8314
464.0000	71.6102
463.5000	71.2787
463.0000	71.8595
462.5000	73.187
462.0000	75.0079
461.5000	76.7122
461.0000	77.9276
460.5000	78.6111
460.0000	78.3665
459.5000	77.4529
459.0000	75.973
458.5000	74.169
458.0000	72.4355
457.5000	71.337
457.0000	71.1146
456.5000	71.9026
456.0000	73.5757
455.5000	75.4008
455.0000	77.3205
454.5000	78.4783
454.0000	78.8049
453.5000	78.203
453.0000	76.7781
452.5000	74.9072
452.0000	72.9645
451.5000	71.4894
451.0000	71.0831
450.5000	71.6412
450.0000	72.8277
449.5000	74.681
449.0000	76.4627
448.5000	78.007
448.0000	78.4018
447.5000	77.8431
447.0000	76.426
446.5000	74.3776
446.0000	72.4244
445.5000	71.1367
445.0000	70.8409
444.5000	71.6134
444.0000	73.1238
443.5000	75.1985
443.0000	77.0266
442.5000	78.0702
442.0000	78.0785
441.5000	76.9425
441.0000	75.1833
440.5000	73.1229
440.0000	71.5022
439.5000	70.8598
439.0000	71.3162
438.5000	72.6631
438.0000	74.4742
437.5000	76.1914
437.0000	77.6825
436.5000	77.6208
436.0000	76.8914
435.5000	75.0173
435.0000	72.8946
434.5000	71.3399
434.0000	70.8395
433.5000	71.3384
433.0000	72.7273
432.5000	74.5798
432.0000	76.3527
431.5000	77.335
431.0000	77.0213
430.5000	75.6501
430.0000	73.76
429.5000	71.713
429.0000	70.5696
428.5000	70.4727
428.0000	71.6983
427.5000	73.2741
427.0000	75.372
426.5000	76.6391
426.0000	76.9558
425.5000	76.0402
425.0000	74.1962
424.5000	72.0927
424.0000	70.794
423.5000	70.5521
423.0000	71.7871
422.5000	73.472
422.0000	75.194
421.5000	76.3848
421.0000	76.4721
420.5000	75.5131
420.0000	73.5229
419.5000	71.7152
419.0000	70.5328
418.5000	70.3547
418.0000	71.7211
417.5000	73.6966
417.0000	75.57
416.5000	76.3942
416.0000	75.651
415.5000	73.9862
415.0000	71.9506
414.5000	70.7087
414.0000	70.5348
413.5000	71.4738
413.0000	73.2971
412.5000	74.7749
412.0000	75.9449
411.5000	75.5759
411.0000	74.0184
410.5000	71.9895
410.0000	70.4156
409.5000	70.0295
409.0000	71.2995
408.5000	73.1106
408.0000	74.7342
407.5000	75.3151
407.0000	74.4682
406.5000	72.7022
406.0000	70.5144
405.5000	69.6711
405.0000	70.2578
404.5000	72.3024
404.0000	74.0463
403.5000	75.1496
403.0000	74.4288
402.5000	72.8377
402.0000	70.8335
401.5000	69.6115
401.0000	69.7567
400.5000	71.4424
400.0000	73.3462
399.5000	74.3551
399.0000	73.7209
398.5000	71.6643
398.0000	69.8978
397.5000	69.4275
397.0000	70.6157
396.5000	72.2581
396.0000	73.8597
395.5000	74.047
395.0000	72.3755
394.5000	70.3617
394.0000	68.9464
393.5000	69.293
393.0000	71.0358
392.5000	72.5737
392.0000	72.9818
391.5000	71.7733
391.0000	69.8226
390.5000	68.9062
390.0000	69.2593
389.5000	70.9044
389.0000	72.0348
388.5000	71.9795
388.0000	70.3294
387.5000	68.7676
387.0000	68.1417
386.5000	69.1892
386.0000	70.6163
385.5000	71.5649
385.0000	70.5898
384.5000	69.0894
384.0000	67.8137
383.5000	68.3095
383.0000	69.6279
382.5000	70.4265
382.0000	69.5213
381.5000	68.0062
381.0000	67.1637
380.5000	68.2074
380.0000	69.458
379.5000	69.4081
379.0000	67.774
378.5000	66.4206
378.0000	66.3456
377.5000	67.7794
377.0000	68.2054
376.5000	66.9318
376.0000	65.455
375.5000	64.8699
375.0000	65.4944
374.5000	65.3849
374.0000	64.0424
373.5000	62.792
373.0000	62.5751
372.5000	61.9349
372.0000	59.9018
371.5000	57.6398
371.0000	55.2574
370.5000	52.7735
370.0000	49.0506
369.5000	45.1924
369.0000	40.4636
368.5000	35.3269
368.0000	29.3538
367.5000	23.4328
367.0000	17.5561
366.5000	11.8854
366.0000	7.33268
365.5000	3.91462
365.0000	1.77946
364.5000	0.648784
364.0000	0.217666
363.5000	0.100824
363.0000	0.0945016
362.5000	0.107087
362.0000	0.10078
361.5000	0.0613323
361.0000	0.0471764
360.5000	0.0535098
360.0000	0.0861381
359.5000	0.0927479
359.0000	0.107568
358.5000	0.0904661
358.0000	0.112604
357.5000	0.0685231
357.0000	0.0653463
356.5000	0.064601
356.0000	0.0939201
355.5000	0.101577
355.0000	0.0831058
354.5000	0.0735134
354.0000	0.0767043
353.5000	0.111745
353.0000	0.0949033
352.5000	0.0921052
352.0000	0.0664712
351.5000	0.0736009
351.0000	0.0917824
350.5000	0.101413
350.0000	0.091987
