TITLE	campione misterioso sotto il 6.3
DATA TYPE	ULTRAVIOLET SPECTRUM
ORIGIN	JASCO
OWNER	
DATE	19/11/21
TIME	17:11:25
SPECTROMETER/DATA SYSTEM	
RESOLUTION	
DELTAX	-1
XUNITS	NANOMETERS
YUNITS	TRANSMITTANCE
FIRSTX	 2500.0000
LASTX	  300.0000
NPOINTS	    2201
FIRSTY	    76.18993
MAXY	    85.58321
MINY	     0.00549
XYDATA
2500.0000	76.1899
2499.0000	76.1606
2498.0000	76.0511
2497.0000	75.9144
2496.0000	75.845
2495.0000	75.5843
2494.0000	75.4879
2493.0000	75.3283
2492.0000	75.1561
2491.0000	75.0088
2490.0000	74.7833
2489.0000	74.6829
2488.0000	74.6295
2487.0000	74.437
2486.0000	74.2892
2485.0000	74.2368
2484.0000	74.1983
2483.0000	74.0058
2482.0000	73.8531
2481.0000	73.7537
2480.0000	73.7831
2479.0000	73.6371
2478.0000	73.4156
2477.0000	73.2934
2476.0000	73.1895
2475.0000	73.0322
2474.0000	72.9223
2473.0000	72.7766
2472.0000	72.7163
2471.0000	72.7794
2470.0000	72.6876
2469.0000	72.766
2468.0000	72.6642
2467.0000	72.6137
2466.0000	72.604
2465.0000	72.5403
2464.0000	72.583
2463.0000	72.5612
2462.0000	72.5651
2461.0000	72.5403
2460.0000	72.5269
2459.0000	72.4408
2458.0000	72.3699
2457.0000	72.3817
2456.0000	72.3267
2455.0000	72.33
2454.0000	72.3074
2453.0000	72.3485
2452.0000	72.4292
2451.0000	72.4198
2450.0000	72.4091
2449.0000	72.4741
2448.0000	72.4684
2447.0000	72.4731
2446.0000	72.5411
2445.0000	72.5295
2444.0000	72.5677
2443.0000	72.6575
2442.0000	72.7088
2441.0000	72.7853
2440.0000	72.841
2439.0000	72.9833
2438.0000	73
2437.0000	73.0797
2436.0000	73.1582
2435.0000	73.1715
2434.0000	73.2853
2433.0000	73.3318
2432.0000	73.4776
2431.0000	73.5966
2430.0000	73.6765
2429.0000	73.8309
2428.0000	73.9417
2427.0000	74.0458
2426.0000	74.2
2425.0000	74.2752
2424.0000	74.3376
2423.0000	74.4949
2422.0000	74.6341
2421.0000	74.7844
2420.0000	74.8382
2419.0000	74.9888
2418.0000	75.1433
2417.0000	75.2777
2416.0000	75.4066
2415.0000	75.6067
2414.0000	75.7569
2413.0000	75.9015
2412.0000	76.089
2411.0000	76.238
2410.0000	76.3955
2409.0000	76.5281
2408.0000	76.7728
2407.0000	76.9595
2406.0000	77.1672
2405.0000	77.3716
2404.0000	77.5312
2403.0000	77.7174
2402.0000	77.9025
2401.0000	78.0491
2400.0000	78.2692
2399.0000	78.442
2398.0000	78.6066
2397.0000	78.811
2396.0000	79.0208
2395.0000	79.1609
2394.0000	79.334
2393.0000	79.5201
2392.0000	79.7635
2391.0000	79.9439
2390.0000	80.1364
2389.0000	80.3357
2388.0000	80.5576
2387.0000	80.6936
2386.0000	80.9285
2385.0000	81.0483
2384.0000	81.2196
2383.0000	81.3432
2382.0000	81.5442
2381.0000	81.7539
2380.0000	81.9037
2379.0000	82.1372
2378.0000	82.292
2377.0000	82.4707
2376.0000	82.609
2375.0000	82.8247
2374.0000	82.9906
2373.0000	83.0308
2372.0000	83.2173
2371.0000	83.352
2370.0000	83.5128
2369.0000	83.6553
2368.0000	83.7439
2367.0000	83.9148
2366.0000	84.0128
2365.0000	84.0688
2364.0000	84.1833
2363.0000	84.2962
2362.0000	84.3447
2361.0000	84.418
2360.0000	84.5311
2359.0000	84.622
2358.0000	84.7414
2357.0000	84.7994
2356.0000	84.8746
2355.0000	84.876
2354.0000	84.9124
2353.0000	84.934
2352.0000	84.9973
2351.0000	84.9602
2350.0000	84.9398
2349.0000	84.9644
2348.0000	84.9576
2347.0000	84.8699
2346.0000	84.8676
2345.0000	84.8596
2344.0000	84.8397
2343.0000	84.8391
2342.0000	84.8035
2341.0000	84.759
2340.0000	84.7288
2339.0000	84.6738
2338.0000	84.6147
2337.0000	84.5433
2336.0000	84.4716
2335.0000	84.3401
2334.0000	84.2777
2333.0000	84.135
2332.0000	83.9997
2331.0000	83.8772
2330.0000	83.7486
2329.0000	83.6544
2328.0000	83.5093
2327.0000	83.4258
2326.0000	83.3026
2325.0000	83.1762
2324.0000	82.9998
2323.0000	82.9045
2322.0000	82.7302
2321.0000	82.4869
2320.0000	82.3095
2319.0000	82.1059
2318.0000	81.8292
2317.0000	81.6289
2316.0000	81.3894
2315.0000	81.2211
2314.0000	81.0133
2313.0000	80.8163
2312.0000	80.6168
2311.0000	80.4533
2310.0000	80.2904
2309.0000	80.0597
2308.0000	79.9101
2307.0000	79.7316
2306.0000	79.5609
2305.0000	79.3532
2304.0000	79.1689
2303.0000	79.0195
2302.0000	78.7824
2301.0000	78.513
2300.0000	78.2895
2299.0000	78.0462
2298.0000	77.8379
2297.0000	77.6685
2296.0000	77.4381
2295.0000	77.3011
2294.0000	77.1687
2293.0000	76.945
2292.0000	76.7126
2291.0000	76.4652
2290.0000	76.366
2289.0000	76.0666
2288.0000	75.8305
2287.0000	75.713
2286.0000	75.4964
2285.0000	75.3203
2284.0000	75.1806
2283.0000	75.0022
2282.0000	74.899
2281.0000	74.6891
2280.0000	74.5151
2279.0000	74.3491
2278.0000	74.1391
2277.0000	73.9851
2276.0000	73.8129
2275.0000	73.6075
2274.0000	73.5404
2273.0000	73.4256
2272.0000	73.3241
2271.0000	73.1736
2270.0000	72.9504
2269.0000	72.906
2268.0000	72.7941
2267.0000	72.6971
2266.0000	72.5486
2265.0000	72.6174
2264.0000	72.5278
2263.0000	72.4819
2262.0000	72.3554
2261.0000	72.2865
2260.0000	72.2032
2259.0000	72.0817
2258.0000	71.9597
2257.0000	71.9005
2256.0000	71.8953
2255.0000	71.9308
2254.0000	71.8233
2253.0000	71.7626
2252.0000	71.8499
2251.0000	71.9088
2250.0000	71.8763
2249.0000	71.872
2248.0000	71.7862
2247.0000	71.9096
2246.0000	71.8977
2245.0000	71.9688
2244.0000	71.9407
2243.0000	72.0185
2242.0000	72.062
2241.0000	72.1153
2240.0000	72.1586
2239.0000	72.2044
2238.0000	72.309
2237.0000	72.3634
2236.0000	72.5066
2235.0000	72.6482
2234.0000	72.7139
2233.0000	72.8074
2232.0000	72.8575
2231.0000	72.9445
2230.0000	73.0359
2229.0000	73.1048
2228.0000	73.2703
2227.0000	73.4518
2226.0000	73.6743
2225.0000	73.89
2224.0000	74.0249
2223.0000	74.2128
2222.0000	74.4567
2221.0000	74.5456
2220.0000	74.7359
2219.0000	74.8807
2218.0000	75.0652
2217.0000	75.198
2216.0000	75.3654
2215.0000	75.5376
2214.0000	75.7136
2213.0000	75.9176
2212.0000	76.1588
2211.0000	76.3229
2210.0000	76.554
2209.0000	76.7976
2208.0000	76.9922
2207.0000	77.2362
2206.0000	77.5812
2205.0000	77.7696
2204.0000	78.0287
2203.0000	78.2293
2202.0000	78.5178
2201.0000	78.7117
2200.0000	78.9289
2199.0000	79.1779
2198.0000	79.4139
2197.0000	79.6458
2196.0000	79.8971
2195.0000	80.0865
2194.0000	80.4291
2193.0000	80.6107
2192.0000	80.8429
2191.0000	81.0982
2190.0000	81.3903
2189.0000	81.6735
2188.0000	81.8268
2187.0000	82.0118
2186.0000	82.2616
2185.0000	82.3834
2184.0000	82.6132
2183.0000	82.7534
2182.0000	82.9396
2181.0000	83.1352
2180.0000	83.3488
2179.0000	83.5938
2178.0000	83.7708
2177.0000	83.9549
2176.0000	84.1105
2175.0000	84.2594
2174.0000	84.399
2173.0000	84.5257
2172.0000	84.664
2171.0000	84.7793
2170.0000	84.9744
2169.0000	85.0003
2168.0000	85.0799
2167.0000	85.1488
2166.0000	85.218
2165.0000	85.3178
2164.0000	85.2909
2163.0000	85.4208
2162.0000	85.4113
2161.0000	85.5087
2160.0000	85.5451
2159.0000	85.5688
2158.0000	85.5709
2157.0000	85.492
2156.0000	85.5282
2155.0000	85.5832
2154.0000	85.5507
2153.0000	85.4875
2152.0000	85.4028
2151.0000	85.3083
2150.0000	85.302
2149.0000	85.1866
2148.0000	85.0537
2147.0000	84.895
2146.0000	84.7779
2145.0000	84.5681
2144.0000	84.4546
2143.0000	84.2145
2142.0000	84.0153
2141.0000	83.9174
2140.0000	83.7172
2139.0000	83.573
2138.0000	83.4261
2137.0000	83.2434
2136.0000	83.1014
2135.0000	82.9094
2134.0000	82.6754
2133.0000	82.5002
2132.0000	82.307
2131.0000	82.0238
2130.0000	81.7838
2129.0000	81.6038
2128.0000	81.4177
2127.0000	81.1417
2126.0000	80.9469
2125.0000	80.6469
2124.0000	80.4661
2123.0000	80.2097
2122.0000	79.9145
2121.0000	79.7149
2120.0000	79.4509
2119.0000	79.1862
2118.0000	78.977
2117.0000	78.7004
2116.0000	78.4816
2115.0000	78.1701
2114.0000	77.9273
2113.0000	77.6963
2112.0000	77.4415
2111.0000	77.2938
2110.0000	76.971
2109.0000	76.7562
2108.0000	76.5417
2107.0000	76.2975
2106.0000	76.1001
2105.0000	75.8009
2104.0000	75.5947
2103.0000	75.4162
2102.0000	75.2379
2101.0000	75.0101
2100.0000	74.8717
2099.0000	74.6593
2098.0000	74.4279
2097.0000	74.3294
2096.0000	74.2039
2095.0000	74.0211
2094.0000	73.8161
2093.0000	73.6766
2092.0000	73.5073
2091.0000	73.4277
2090.0000	73.2186
2089.0000	73.0417
2088.0000	72.9173
2087.0000	72.7974
2086.0000	72.7437
2085.0000	72.5946
2084.0000	72.5347
2083.0000	72.4212
2082.0000	72.3997
2081.0000	72.2898
2080.0000	72.1962
2079.0000	72.1506
2078.0000	72.1573
2077.0000	72.1411
2076.0000	72.0614
2075.0000	72.1012
2074.0000	72.0663
2073.0000	72.1156
2072.0000	72.1101
2071.0000	72.1647
2070.0000	72.1842
2069.0000	72.2291
2068.0000	72.3183
2067.0000	72.3472
2066.0000	72.4589
2065.0000	72.4895
2064.0000	72.5934
2063.0000	72.7711
2062.0000	72.7864
2061.0000	72.9522
2060.0000	73.0925
2059.0000	73.2058
2058.0000	73.3182
2057.0000	73.4903
2056.0000	73.5932
2055.0000	73.7559
2054.0000	73.9032
2053.0000	74.0661
2052.0000	74.2145
2051.0000	74.3811
2050.0000	74.6098
2049.0000	74.853
2048.0000	75.0684
2047.0000	75.2476
2046.0000	75.4697
2045.0000	75.7037
2044.0000	75.8929
2043.0000	76.1485
2042.0000	76.3507
2041.0000	76.5868
2040.0000	76.8239
2039.0000	77.1108
2038.0000	77.4466
2037.0000	77.6594
2036.0000	77.8438
2035.0000	78.1907
2034.0000	78.4714
2033.0000	78.733
2032.0000	79.0391
2031.0000	79.3428
2030.0000	79.6073
2029.0000	79.8699
2028.0000	80.1649
2027.0000	80.5015
2026.0000	80.6429
2025.0000	80.932
2024.0000	81.184
2023.0000	81.4353
2022.0000	81.6787
2021.0000	81.8621
2020.0000	82.1841
2019.0000	82.4366
2018.0000	82.6547
2017.0000	82.8528
2016.0000	83.0323
2015.0000	83.2236
2014.0000	83.4608
2013.0000	83.5838
2012.0000	83.7103
2011.0000	83.926
2010.0000	84.0609
2009.0000	84.2602
2008.0000	84.3808
2007.0000	84.547
2006.0000	84.7061
2005.0000	84.7801
2004.0000	84.9456
2003.0000	84.9547
2002.0000	85.0203
2001.0000	85.1031
2000.0000	85.1314
1999.0000	85.229
1998.0000	85.1851
1997.0000	85.2277
1996.0000	85.2715
1995.0000	85.2004
1994.0000	85.1015
1993.0000	85.0589
1992.0000	84.9465
1991.0000	84.9204
1990.0000	84.8396
1989.0000	84.736
1988.0000	84.6784
1987.0000	84.499
1986.0000	84.4298
1985.0000	84.2376
1984.0000	84.0382
1983.0000	83.8739
1982.0000	83.6979
1981.0000	83.5581
1980.0000	83.3387
1979.0000	83.0854
1978.0000	82.822
1977.0000	82.538
1976.0000	82.3245
1975.0000	82.1006
1974.0000	81.832
1973.0000	81.5885
1972.0000	81.3627
1971.0000	81.1341
1970.0000	80.849
1969.0000	80.5891
1968.0000	80.3485
1967.0000	80.0992
1966.0000	79.8217
1965.0000	79.5256
1964.0000	79.2695
1963.0000	78.9915
1962.0000	78.6497
1961.0000	78.3477
1960.0000	78.0657
1959.0000	77.8095
1958.0000	77.5642
1957.0000	77.3124
1956.0000	77.1093
1955.0000	76.8306
1954.0000	76.5541
1953.0000	76.2516
1952.0000	75.9689
1951.0000	75.7283
1950.0000	75.4173
1949.0000	75.1482
1948.0000	74.974
1947.0000	74.7491
1946.0000	74.6293
1945.0000	74.3811
1944.0000	74.1908
1943.0000	74.0727
1942.0000	73.8882
1941.0000	73.7509
1940.0000	73.5768
1939.0000	73.4927
1938.0000	73.32
1937.0000	73.2457
1936.0000	73.1766
1935.0000	72.9729
1934.0000	72.9541
1933.0000	72.7771
1932.0000	72.7329
1931.0000	72.6622
1930.0000	72.6391
1929.0000	72.7281
1928.0000	72.7617
1927.0000	72.7224
1926.0000	72.7862
1925.0000	72.664
1924.0000	72.5987
1923.0000	72.5595
1922.0000	72.5468
1921.0000	72.6249
1920.0000	72.6549
1919.0000	72.7789
1918.0000	72.8645
1917.0000	73.006
1916.0000	73.0575
1915.0000	73.1165
1914.0000	73.2423
1913.0000	73.3864
1912.0000	73.6308
1911.0000	73.7643
1910.0000	73.9975
1909.0000	74.2601
1908.0000	74.4561
1907.0000	74.7092
1906.0000	74.8853
1905.0000	75.2019
1904.0000	75.4838
1903.0000	75.688
1902.0000	76.0206
1901.0000	76.2592
1900.0000	76.47
1899.0000	76.7238
1898.0000	76.9595
1897.0000	77.2026
1896.0000	77.4162
1895.0000	77.6826
1894.0000	77.8347
1893.0000	78.1443
1892.0000	78.4172
1891.0000	78.7596
1890.0000	79.0882
1889.0000	79.417
1888.0000	79.7948
1887.0000	80.0972
1886.0000	80.4373
1885.0000	80.7941
1884.0000	81.0796
1883.0000	81.3776
1882.0000	81.6251
1881.0000	81.9184
1880.0000	82.1948
1879.0000	82.3773
1878.0000	82.6618
1877.0000	82.8224
1876.0000	82.9427
1875.0000	83.0704
1874.0000	83.2336
1873.0000	83.5209
1872.0000	83.7686
1871.0000	84.1015
1870.0000	84.4273
1869.0000	84.6501
1868.0000	84.8313
1867.0000	84.9316
1866.0000	84.9967
1865.0000	85.0594
1864.0000	85.0548
1863.0000	85.0979
1862.0000	85.1564
1861.0000	85.2344
1860.0000	85.3444
1859.0000	85.3367
1858.0000	85.4139
1857.0000	85.4437
1856.0000	85.3861
1855.0000	85.3212
1854.0000	85.1698
1853.0000	84.9941
1852.0000	84.7614
1851.0000	84.5525
1850.0000	84.3691
1849.0000	84.2382
1848.0000	84.0421
1847.0000	83.7718
1846.0000	83.5897
1845.0000	83.3337
1844.0000	83.057
1843.0000	82.7505
1842.0000	82.3835
1841.0000	82.0905
1840.0000	81.8261
1839.0000	81.6142
1838.0000	81.3735
1837.0000	81.1033
1836.0000	80.8498
1835.0000	80.6054
1834.0000	80.3691
1833.0000	80.0347
1832.0000	79.6683
1831.0000	79.3143
1830.0000	78.9632
1829.0000	78.6579
1828.0000	78.3191
1827.0000	77.9782
1826.0000	77.6846
1825.0000	77.3534
1824.0000	77.0075
1823.0000	76.6357
1822.0000	76.2619
1821.0000	75.9538
1820.0000	75.6466
1819.0000	75.4085
1818.0000	75.1311
1817.0000	74.8931
1816.0000	74.664
1815.0000	74.4581
1814.0000	74.1809
1813.0000	73.9626
1812.0000	73.7257
1811.0000	73.5015
1810.0000	73.303
1809.0000	73.1387
1808.0000	72.9667
1807.0000	72.8091
1806.0000	72.65
1805.0000	72.5218
1804.0000	72.4529
1803.0000	72.3469
1802.0000	72.1908
1801.0000	72.1679
1800.0000	72.0717
1799.0000	72.0505
1798.0000	72.0172
1797.0000	71.9905
1796.0000	72.0196
1795.0000	72.0133
1794.0000	72.0495
1793.0000	72.1362
1792.0000	72.2245
1791.0000	72.3122
1790.0000	72.4046
1789.0000	72.5362
1788.0000	72.6752
1787.0000	72.7996
1786.0000	72.9988
1785.0000	73.1677
1784.0000	73.3991
1783.0000	73.6106
1782.0000	73.815
1781.0000	74.0437
1780.0000	74.2337
1779.0000	74.4786
1778.0000	74.7612
1777.0000	75.0184
1776.0000	75.3505
1775.0000	75.6348
1774.0000	75.9801
1773.0000	76.2591
1772.0000	76.571
1771.0000	76.883
1770.0000	77.2233
1769.0000	77.5589
1768.0000	77.8961
1767.0000	78.2255
1766.0000	78.6268
1765.0000	78.944
1764.0000	79.2824
1763.0000	79.6123
1762.0000	79.97
1761.0000	80.3562
1760.0000	80.6993
1759.0000	81.084
1758.0000	81.4507
1757.0000	81.8032
1756.0000	82.1651
1755.0000	82.4899
1754.0000	82.8031
1753.0000	83.0922
1752.0000	83.3707
1751.0000	83.629
1750.0000	83.8597
1749.0000	84.0936
1748.0000	84.2961
1747.0000	84.4714
1746.0000	84.6383
1745.0000	84.8195
1744.0000	84.9421
1743.0000	85.0699
1742.0000	85.1329
1741.0000	85.1749
1740.0000	85.2452
1739.0000	85.2499
1738.0000	85.2743
1737.0000	85.2696
1736.0000	85.2702
1735.0000	85.2203
1734.0000	85.102
1733.0000	85.0041
1732.0000	84.8558
1731.0000	84.7189
1730.0000	84.5408
1729.0000	84.3437
1728.0000	84.1234
1727.0000	83.9067
1726.0000	83.671
1725.0000	83.4172
1724.0000	83.1248
1723.0000	82.8433
1722.0000	82.5403
1721.0000	82.2112
1720.0000	81.8968
1719.0000	81.4867
1718.0000	81.1718
1717.0000	80.8074
1716.0000	80.4115
1715.0000	80.0575
1714.0000	79.7278
1713.0000	79.3861
1712.0000	79.0309
1711.0000	78.624
1710.0000	78.2994
1709.0000	77.9225
1708.0000	77.5207
1707.0000	77.1569
1706.0000	76.8253
1705.0000	76.4761
1704.0000	76.1212
1703.0000	75.7927
1702.0000	75.4912
1701.0000	75.2069
1700.0000	74.9107
1699.0000	74.5834
1698.0000	74.2927
1697.0000	74.0765
1696.0000	73.88
1695.0000	73.5877
1694.0000	73.3673
1693.0000	73.2086
1692.0000	73.044
1691.0000	72.8927
1690.0000	72.7515
1689.0000	72.676
1688.0000	72.6232
1687.0000	72.5451
1686.0000	72.4731
1685.0000	72.4279
1684.0000	72.4395
1683.0000	72.4544
1682.0000	72.47
1681.0000	72.4752
1680.0000	72.6012
1679.0000	72.673
1678.0000	72.7476
1677.0000	72.8419
1676.0000	72.9644
1675.0000	73.0901
1674.0000	73.2589
1673.0000	73.4134
1672.0000	73.6638
1671.0000	73.9059
1670.0000	74.1685
1669.0000	74.4293
1668.0000	74.7369
1667.0000	75.0544
1666.0000	75.3339
1665.0000	75.6391
1664.0000	75.9616
1663.0000	76.3027
1662.0000	76.653
1661.0000	77.0033
1660.0000	77.3828
1659.0000	77.725
1658.0000	78.1062
1657.0000	78.4968
1656.0000	78.8942
1655.0000	79.2503
1654.0000	79.6383
1653.0000	80.0153
1652.0000	80.4368
1651.0000	80.7958
1650.0000	81.192
1649.0000	81.5802
1648.0000	81.9553
1647.0000	82.2799
1646.0000	82.6158
1645.0000	82.9378
1644.0000	83.2164
1643.0000	83.5182
1642.0000	83.7631
1641.0000	83.9895
1640.0000	84.2223
1639.0000	84.4076
1638.0000	84.5739
1637.0000	84.6814
1636.0000	84.7819
1635.0000	84.8986
1634.0000	84.9385
1633.0000	84.9737
1632.0000	85.0056
1631.0000	85.0199
1630.0000	84.9456
1629.0000	84.8474
1628.0000	84.7234
1627.0000	84.6065
1626.0000	84.4204
1625.0000	84.2013
1624.0000	83.9706
1623.0000	83.7253
1622.0000	83.4503
1621.0000	83.1562
1620.0000	82.8178
1619.0000	82.4886
1618.0000	82.1658
1617.0000	81.8164
1616.0000	81.4332
1615.0000	81.043
1614.0000	80.6449
1613.0000	80.2461
1612.0000	79.8073
1611.0000	79.3617
1610.0000	78.9192
1609.0000	78.5159
1608.0000	78.1169
1607.0000	77.7241
1606.0000	77.3537
1605.0000	76.9403
1604.0000	76.5959
1603.0000	76.2032
1602.0000	75.8772
1601.0000	75.6541
1600.0000	75.54
1599.0000	75.5776
1598.0000	75.5551
1597.0000	75.4388
1596.0000	75.2622
1595.0000	74.876
1594.0000	74.4672
1593.0000	73.9288
1592.0000	73.4068
1591.0000	73.0018
1590.0000	72.7337
1589.0000	72.5859
1588.0000	72.4687
1587.0000	72.4233
1586.0000	72.3632
1585.0000	72.3791
1584.0000	72.3814
1583.0000	72.4098
1582.0000	72.5039
1581.0000	72.5716
1580.0000	72.6681
1579.0000	72.7856
1578.0000	72.9183
1577.0000	73.1301
1576.0000	73.3162
1575.0000	73.5425
1574.0000	73.7715
1573.0000	74.069
1572.0000	74.3924
1571.0000	74.693
1570.0000	75.0303
1569.0000	75.3652
1568.0000	75.7427
1567.0000	76.1809
1566.0000	76.5697
1565.0000	76.9497
1564.0000	77.3859
1563.0000	77.7848
1562.0000	78.2604
1561.0000	78.6643
1560.0000	79.1288
1559.0000	79.5817
1558.0000	80.0699
1557.0000	80.5171
1556.0000	80.945
1555.0000	81.332
1554.0000	81.7428
1553.0000	82.1155
1552.0000	82.4888
1551.0000	82.8696
1550.0000	83.1584
1549.0000	83.4864
1548.0000	83.789
1547.0000	84.0455
1546.0000	84.2835
1545.0000	84.5509
1544.0000	84.7304
1543.0000	84.8805
1542.0000	85.0071
1541.0000	85.0465
1540.0000	85.1124
1539.0000	85.1147
1538.0000	85.119
1537.0000	85.0344
1536.0000	84.9541
1535.0000	84.7844
1534.0000	84.5753
1533.0000	84.3411
1532.0000	84.1152
1531.0000	83.8215
1530.0000	83.5435
1529.0000	83.239
1528.0000	82.9177
1527.0000	82.5591
1526.0000	82.1414
1525.0000	81.7232
1524.0000	81.2933
1523.0000	80.8413
1522.0000	80.3565
1521.0000	79.8989
1520.0000	79.4397
1519.0000	78.9702
1518.0000	78.4695
1517.0000	78.0061
1516.0000	77.5744
1515.0000	77.1172
1514.0000	76.6815
1513.0000	76.2635
1512.0000	75.8329
1511.0000	75.4294
1510.0000	75.0165
1509.0000	74.6422
1508.0000	74.3076
1507.0000	73.9754
1506.0000	73.6941
1505.0000	73.4026
1504.0000	73.1719
1503.0000	72.9554
1502.0000	72.7569
1501.0000	72.5844
1500.0000	72.4578
1499.0000	72.3681
1498.0000	72.2898
1497.0000	72.2465
1496.0000	72.2126
1495.0000	72.2493
1494.0000	72.2724
1493.0000	72.3395
1492.0000	72.4737
1491.0000	72.6368
1490.0000	72.7902
1489.0000	73.0058
1488.0000	73.2252
1487.0000	73.5172
1486.0000	73.8095
1485.0000	74.0982
1484.0000	74.444
1483.0000	74.7924
1482.0000	75.1812
1481.0000	75.604
1480.0000	76.018
1479.0000	76.4713
1478.0000	76.904
1477.0000	77.3887
1476.0000	77.8666
1475.0000	78.3149
1474.0000	78.7974
1473.0000	79.28
1472.0000	79.7746
1471.0000	80.284
1470.0000	80.7722
1469.0000	81.25
1468.0000	81.6975
1467.0000	82.1578
1466.0000	82.5844
1465.0000	82.9675
1464.0000	83.353
1463.0000	83.6728
1462.0000	83.9709
1461.0000	84.2284
1460.0000	84.4421
1459.0000	84.5893
1458.0000	84.7112
1457.0000	84.775
1456.0000	84.8559
1455.0000	84.8723
1454.0000	84.8342
1453.0000	84.727
1452.0000	84.6176
1451.0000	84.4263
1450.0000	84.1687
1449.0000	83.9305
1448.0000	83.6474
1447.0000	83.3421
1446.0000	83
1445.0000	82.6183
1444.0000	82.2255
1443.0000	81.7943
1442.0000	81.3293
1441.0000	80.844
1440.0000	80.3373
1439.0000	79.8698
1438.0000	79.3755
1437.0000	78.8381
1436.0000	78.323
1435.0000	77.8203
1434.0000	77.3237
1433.0000	76.83
1432.0000	76.3435
1431.0000	75.875
1430.0000	75.4738
1429.0000	75.0704
1428.0000	74.7282
1427.0000	74.3581
1426.0000	74.0248
1425.0000	73.7431
1424.0000	73.4772
1423.0000	73.23
1422.0000	73.004
1421.0000	72.8153
1420.0000	72.6857
1419.0000	72.5819
1418.0000	72.5307
1417.0000	72.5244
1416.0000	72.5346
1415.0000	72.6356
1414.0000	72.7447
1413.0000	72.9434
1412.0000	73.1381
1411.0000	73.3452
1410.0000	73.5783
1409.0000	73.866
1408.0000	74.1718
1407.0000	74.5441
1406.0000	74.881
1405.0000	75.2923
1404.0000	75.7443
1403.0000	76.2126
1402.0000	76.7056
1401.0000	77.195
1400.0000	77.7216
1399.0000	78.2401
1398.0000	78.776
1397.0000	79.3063
1396.0000	79.881
1395.0000	80.4013
1394.0000	80.9228
1393.0000	81.384
1392.0000	81.8418
1391.0000	82.3096
1390.0000	82.7285
1389.0000	83.1348
1388.0000	83.5019
1387.0000	83.835
1386.0000	84.1138
1385.0000	84.3766
1384.0000	84.5384
1383.0000	84.632
1382.0000	84.7025
1381.0000	84.6913
1380.0000	84.6502
1379.0000	84.5763
1378.0000	84.4325
1377.0000	84.2018
1376.0000	83.9591
1375.0000	83.6621
1374.0000	83.3229
1373.0000	82.9244
1372.0000	82.4806
1371.0000	82.0463
1370.0000	81.575
1369.0000	81.0923
1368.0000	80.5376
1367.0000	79.9725
1366.0000	79.4226
1365.0000	78.8051
1364.0000	78.2201
1363.0000	77.6557
1362.0000	77.0885
1361.0000	76.5893
1360.0000	76.0799
1359.0000	75.5929
1358.0000	75.134
1357.0000	74.6977
1356.0000	74.2597
1355.0000	73.8832
1354.0000	73.5198
1353.0000	73.2058
1352.0000	72.941
1351.0000	72.7189
1350.0000	72.5804
1349.0000	72.4384
1348.0000	72.337
1347.0000	72.3139
1346.0000	72.3614
1345.0000	72.4288
1344.0000	72.5365
1343.0000	72.692
1342.0000	72.8978
1341.0000	73.1441
1340.0000	73.4086
1339.0000	73.7673
1338.0000	74.122
1337.0000	74.5394
1336.0000	74.9667
1335.0000	75.455
1334.0000	75.9491
1333.0000	76.4805
1332.0000	77.0293
1331.0000	77.6065
1330.0000	78.1673
1329.0000	78.7626
1328.0000	79.3606
1327.0000	79.9613
1326.0000	80.5077
1325.0000	81.1243
1324.0000	81.6521
1323.0000	82.179
1322.0000	82.6545
1321.0000	83.0611
1320.0000	83.4569
1319.0000	83.8065
1318.0000	84.0722
1317.0000	84.2991
1316.0000	84.4907
1315.0000	84.5903
1314.0000	84.6252
1313.0000	84.6112
1312.0000	84.5342
1311.0000	84.3966
1310.0000	84.1782
1309.0000	83.899
1308.0000	83.5905
1307.0000	83.1947
1306.0000	82.7491
1305.0000	82.2694
1304.0000	81.7601
1303.0000	81.2241
1302.0000	80.6415
1301.0000	80.0726
1300.0000	79.4853
1299.0000	78.8914
1298.0000	78.3027
1297.0000	77.6907
1296.0000	77.1023
1295.0000	76.532
1294.0000	75.9723
1293.0000	75.4283
1292.0000	74.9187
1291.0000	74.434
1290.0000	73.9893
1289.0000	73.5817
1288.0000	73.2569
1287.0000	72.9843
1286.0000	72.7501
1285.0000	72.5536
1284.0000	72.4351
1283.0000	72.3927
1282.0000	72.3812
1281.0000	72.4068
1280.0000	72.5225
1279.0000	72.7033
1278.0000	72.9073
1277.0000	73.18
1276.0000	73.4865
1275.0000	73.8764
1274.0000	74.2972
1273.0000	74.7611
1272.0000	75.2744
1271.0000	75.798
1270.0000	76.3605
1269.0000	76.9482
1268.0000	77.5846
1267.0000	78.2148
1266.0000	78.8607
1265.0000	79.5063
1264.0000	80.1403
1263.0000	80.7614
1262.0000	81.3473
1261.0000	81.8863
1260.0000	82.3684
1259.0000	82.8344
1258.0000	83.2271
1257.0000	83.5966
1256.0000	83.8859
1255.0000	84.1085
1254.0000	84.2533
1253.0000	84.3138
1252.0000	84.3157
1251.0000	84.2207
1250.0000	84.0525
1249.0000	83.7961
1248.0000	83.5037
1247.0000	83.1547
1246.0000	82.7313
1245.0000	82.2483
1244.0000	81.7171
1243.0000	81.1206
1242.0000	80.5259
1241.0000	79.9038
1240.0000	79.24
1239.0000	78.5902
1238.0000	77.9432
1237.0000	77.2983
1236.0000	76.6765
1235.0000	76.0481
1234.0000	75.4824
1233.0000	74.9411
1232.0000	74.455
1231.0000	74.0188
1230.0000	73.6387
1229.0000	73.3103
1228.0000	73.0236
1227.0000	72.8442
1226.0000	72.6939
1225.0000	72.5995
1224.0000	72.5762
1223.0000	72.6081
1222.0000	72.7368
1221.0000	72.9177
1220.0000	73.1475
1219.0000	73.494
1218.0000	73.8839
1217.0000	74.3504
1216.0000	74.8502
1215.0000	75.4079
1214.0000	75.9917
1213.0000	76.6131
1212.0000	77.2692
1211.0000	77.9196
1210.0000	78.588
1209.0000	79.266
1208.0000	79.9499
1207.0000	80.5882
1206.0000	81.2064
1205.0000	81.7865
1204.0000	82.3504
1203.0000	82.8403
1202.0000	83.2603
1201.0000	83.5915
1200.0000	83.8526
1199.0000	84.0479
1198.0000	84.1378
1197.0000	84.1471
1196.0000	84.055
1195.0000	83.8754
1194.0000	83.6223
1193.0000	83.2699
1192.0000	82.867
1191.0000	82.4074
1190.0000	81.8427
1189.0000	81.2358
1188.0000	80.5946
1187.0000	79.9082
1186.0000	79.1882
1185.0000	78.4736
1184.0000	77.731
1183.0000	77.0378
1182.0000	76.3585
1181.0000	75.7091
1180.0000	75.1158
1179.0000	74.5261
1178.0000	74.0152
1177.0000	73.5783
1176.0000	73.1748
1175.0000	72.8727
1174.0000	72.61
1173.0000	72.4577
1172.0000	72.3949
1171.0000	72.3813
1170.0000	72.4627
1169.0000	72.6127
1168.0000	72.8375
1167.0000	73.1221
1166.0000	73.5098
1165.0000	73.9735
1164.0000	74.4991
1163.0000	75.0822
1162.0000	75.7511
1161.0000	76.4413
1160.0000	77.189
1159.0000	77.9239
1158.0000	78.6688
1157.0000	79.4223
1156.0000	80.1619
1155.0000	80.8742
1154.0000	81.5308
1153.0000	82.1152
1152.0000	82.6527
1151.0000	83.1105
1150.0000	83.4735
1149.0000	83.7597
1148.0000	83.9253
1147.0000	83.9841
1146.0000	83.9498
1145.0000	83.8124
1144.0000	83.5596
1143.0000	83.2074
1142.0000	82.8123
1141.0000	82.3171
1140.0000	81.7333
1139.0000	81.0735
1138.0000	80.3938
1137.0000	79.678
1136.0000	78.9239
1135.0000	78.1936
1134.0000	77.4492
1133.0000	76.7396
1132.0000	76.0354
1131.0000	75.3589
1130.0000	74.7356
1129.0000	74.1804
1128.0000	73.6907
1127.0000	73.2658
1126.0000	72.9431
1125.0000	72.7103
1124.0000	72.5968
1123.0000	72.5229
1122.0000	72.5618
1121.0000	72.728
1120.0000	72.9655
1119.0000	73.2872
1118.0000	73.676
1117.0000	74.1689
1116.0000	74.7404
1115.0000	75.3674
1114.0000	76.0432
1113.0000	76.7781
1112.0000	77.5731
1111.0000	78.3386
1110.0000	79.1198
1109.0000	79.8501
1108.0000	80.5824
1107.0000	81.245
1106.0000	81.8382
1105.0000	82.3742
1104.0000	82.8455
1103.0000	83.2136
1102.0000	83.4905
1101.0000	83.6554
1100.0000	83.7224
1099.0000	83.6373
1098.0000	83.4346
1097.0000	83.0975
1096.0000	82.6689
1095.0000	82.1179
1094.0000	81.5069
1093.0000	80.8186
1092.0000	80.0874
1091.0000	79.3265
1090.0000	78.5184
1089.0000	77.7262
1088.0000	76.9251
1087.0000	76.1704
1086.0000	75.4609
1085.0000	74.7926
1084.0000	74.1774
1083.0000	73.6689
1082.0000	73.2842
1081.0000	72.9265
1080.0000	72.7046
1079.0000	72.5579
1078.0000	72.5716
1077.0000	72.6887
1076.0000	72.9024
1075.0000	73.2029
1074.0000	73.6252
1073.0000	74.1716
1072.0000	74.7607
1071.0000	75.4023
1070.0000	76.1088
1069.0000	76.881
1068.0000	77.6815
1067.0000	78.5219
1066.0000	79.3222
1065.0000	80.1106
1064.0000	80.8743
1063.0000	81.5605
1062.0000	82.1965
1061.0000	82.6677
1060.0000	83.0682
1059.0000	83.3544
1058.0000	83.5229
1057.0000	83.5385
1056.0000	83.4087
1055.0000	83.1522
1054.0000	82.7794
1053.0000	82.2527
1052.0000	81.6255
1051.0000	80.9113
1050.0000	80.1076
1049.0000	79.2997
1048.0000	78.4484
1047.0000	77.569
1046.0000	76.7183
1045.0000	75.8942
1044.0000	75.1469
1043.0000	74.4523
1042.0000	73.8398
1041.0000	73.3041
1040.0000	72.9373
1039.0000	72.6611
1038.0000	72.4912
1037.0000	72.4799
1036.0000	72.5862
1035.0000	72.8196
1034.0000	73.1642
1033.0000	73.6321
1032.0000	74.2308
1031.0000	74.8903
1030.0000	75.6172
1029.0000	76.4337
1028.0000	77.3172
1027.0000	78.1822
1026.0000	79.0693
1025.0000	79.8988
1024.0000	80.6609
1023.0000	81.3867
1022.0000	81.9958
1021.0000	82.4943
1020.0000	82.8483
1019.0000	83.0798
1018.0000	83.1711
1017.0000	83.0948
1016.0000	82.8445
1015.0000	82.505
1014.0000	81.9918
1013.0000	81.3743
1012.0000	80.6233
1011.0000	79.8101
1010.0000	78.931
1009.0000	78.0362
1008.0000	77.1671
1007.0000	76.299
1006.0000	75.464
1005.0000	74.7193
1004.0000	74.0664
1003.0000	73.5237
1002.0000	73.0386
1001.0000	72.7447
1000.0000	72.5956
999.0000	72.6093
998.0000	72.7135
997.0000	73.0206
996.0000	73.4643
995.0000	74.0204
994.0000	74.7276
993.0000	75.4883
992.0000	76.351
991.0000	77.261
990.0000	78.1817
989.0000	79.0614
988.0000	79.9308
987.0000	80.7213
986.0000	81.4329
985.0000	81.9973
984.0000	82.4328
983.0000	82.7505
982.0000	82.8717
981.0000	82.8367
980.0000	82.6427
979.0000	82.2832
978.0000	81.7592
977.0000	81.1017
976.0000	80.3432
975.0000	79.4856
974.0000	78.5367
973.0000	77.6344
972.0000	76.6602
971.0000	75.7552
970.0000	74.9109
969.0000	74.1789
968.0000	73.5559
967.0000	73.0526
966.0000	72.7009
965.0000	72.5587
964.0000	72.5799
963.0000	72.7731
962.0000	73.0969
961.0000	73.585
960.0000	74.2244
959.0000	74.9522
958.0000	75.8024
957.0000	76.6724
956.0000	77.6337
955.0000	78.5544
954.0000	79.4761
953.0000	80.3805
952.0000	81.0818
951.0000	81.7533
950.0000	82.2318
949.0000	82.6342
948.0000	82.7516
947.0000	82.6487
946.0000	82.3739
945.0000	81.9052
944.0000	81.289
943.0000	80.5101
942.0000	79.6203
941.0000	78.6991
940.0000	77.7327
939.0000	76.7716
938.0000	75.8101
937.0000	74.8824
936.0000	74.1064
935.0000	73.4494
934.0000	72.9802
933.0000	72.6381
932.0000	72.5307
931.0000	72.6242
930.0000	72.924
929.0000	73.3131
928.0000	73.9107
927.0000	74.5732
926.0000	75.4202
925.0000	76.2565
924.0000	77.2214
923.0000	78.2286
922.0000	79.146
921.0000	80.0576
920.0000	80.8638
919.0000	81.5276
918.0000	82.0103
917.0000	82.2707
916.0000	82.342
915.0000	82.1597
914.0000	81.8555
913.0000	81.3566
912.0000	80.6417
911.0000	79.8238
910.0000	78.8323
909.0000	77.8923
908.0000	76.8594
907.0000	75.8548
906.0000	74.8906
905.0000	74.0602
904.0000	73.4321
903.0000	72.9446
902.0000	72.7153
901.0000	72.6051
900.0000	72.9893
899.0000	73.0365
898.0000	73.4718
897.0000	73.7013
896.0000	74.1001
895.0000	74.7233
894.0000	75.6075
893.0000	76.5369
892.0000	77.4403
891.0000	78.2838
890.0000	79.2999
889.0000	80.1669
888.0000	80.8852
887.0000	81.4559
886.0000	81.5139
885.0000	81.5982
884.0000	81.434
883.0000	81.1882
882.0000	80.65
881.0000	79.9424
880.0000	79.0795
879.0000	78.1625
878.0000	77.1052
877.0000	76.0638
876.0000	75.0527
875.0000	74.1778
874.0000	73.491
873.0000	72.9598
872.0000	72.6321
871.0000	72.5956
870.0000	72.7011
869.0000	73.1064
868.0000	73.6806
867.0000	74.4183
866.0000	75.2863
865.0000	76.2853
864.0000	77.29
863.0000	78.3539
862.0000	79.345
861.0000	80.243
860.0000	80.9423
859.0000	81.4592
858.0000	81.7543
857.0000	81.7283
856.0000	81.4142
855.0000	80.8418
854.0000	80.0457
853.0000	79.1558
852.0000	78.0815
851.0000	76.9655
850.0000	75.8677
849.0000	74.8541
848.0000	74.0043
847.0000	73.2836
846.0000	72.7846
845.0000	72.5273
844.0000	72.542
843.0000	72.8167
842.0000	73.3589
841.0000	74.0796
840.0000	75.0005
839.0000	76.0184
838.0000	77.1227
837.0000	78.1966
836.0000	79.1934
835.0000	80.0649
834.0000	80.7393
833.0000	81.2193
832.0000	81.4064
831.0000	81.2853
830.0000	80.8849
829.0000	80.2491
828.0000	79.3838
827.0000	78.3435
826.0000	77.2396
825.0000	76.1095
824.0000	75.0648
823.0000	74.1467
822.0000	73.4065
821.0000	72.8951
820.0000	72.628
819.0000	72.6454
818.0000	72.9283
817.0000	73.4837
816.0000	74.2582
815.0000	75.2125
814.0000	76.2886
813.0000	77.4094
812.0000	78.5076
811.0000	79.5067
810.0000	80.3174
809.0000	80.8777
808.0000	81.156
807.0000	81.1199
806.0000	80.7715
805.0000	80.1494
804.0000	79.2559
803.0000	78.1972
802.0000	77.0303
801.0000	75.8677
800.0000	74.7785
799.0000	73.8541
798.0000	73.1318
797.0000	72.7218
796.0000	72.619
795.0000	72.8145
794.0000	73.3265
793.0000	74.0777
792.0000	75.0438
791.0000	76.168
790.0000	77.3252
789.0000	78.4442
788.0000	79.4212
787.0000	80.1954
786.0000	80.7159
785.0000	80.8912
784.0000	80.7482
783.0000	80.2719
782.0000	79.52
781.0000	78.5392
780.0000	77.4001
779.0000	76.2229
778.0000	75.0928
777.0000	74.1044
776.0000	73.3705
775.0000	72.9267
774.0000	72.7881
773.0000	72.9894
772.0000	73.5109
771.0000	74.2996
770.0000	75.2916
769.0000	76.4018
768.0000	77.55
767.0000	78.6319
766.0000	79.5528
765.0000	80.2286
764.0000	80.5815
763.0000	80.6067
762.0000	80.2503
761.0000	79.5775
760.0000	78.6191
759.0000	77.5009
758.0000	76.31
757.0000	75.1577
756.0000	74.153
755.0000	73.3969
754.0000	72.9763
753.0000	72.8929
752.0000	73.1539
751.0000	73.7573
750.0000	74.631
749.0000	75.7318
748.0000	76.9041
747.0000	78.052
746.0000	79.0758
745.0000	79.8579
744.0000	80.3172
743.0000	80.3889
742.0000	80.0781
741.0000	79.4041
740.0000	78.4064
739.0000	77.262
738.0000	76.0766
737.0000	74.9379
736.0000	73.9899
735.0000	73.319
734.0000	73.0052
733.0000	73.0616
732.0000	73.5062
731.0000	74.2677
730.0000	75.2716
729.0000	76.4133
728.0000	77.5877
727.0000	78.6575
726.0000	79.4771
725.0000	79.9828
724.0000	80.1003
723.0000	79.8353
722.0000	79.1676
721.0000	78.2006
720.0000	77.0548
719.0000	75.8505
718.0000	74.7496
717.0000	73.8494
716.0000	73.2803
715.0000	73.1045
714.0000	73.3351
713.0000	73.9446
712.0000	74.8627
711.0000	75.9835
710.0000	77.1695
709.0000	78.2753
708.0000	79.1596
707.0000	79.7079
706.0000	79.8539
705.0000	79.5686
704.0000	78.8786
703.0000	77.8774
702.0000	76.7074
701.0000	75.4987
700.0000	74.4226
699.0000	73.6283
698.0000	73.2042
697.0000	73.2124
696.0000	73.6418
695.0000	74.4468
694.0000	75.5179
693.0000	76.6996
692.0000	77.8491
691.0000	78.7936
690.0000	79.4004
689.0000	79.5881
688.0000	79.3331
687.0000	78.6428
686.0000	77.6281
685.0000	76.444
684.0000	75.2764
683.0000	74.2729
682.0000	73.571
681.0000	73.2774
680.0000	73.452
679.0000	74.0508
678.0000	74.9818
677.0000	76.1
676.0000	77.2685
675.0000	78.3013
674.0000	79.0183
673.0000	79.3204
672.0000	79.1431
671.0000	78.5233
670.0000	77.5693
669.0000	76.417
668.0000	75.2446
667.0000	74.2683
666.0000	73.6123
665.0000	73.3951
664.0000	73.654
663.0000	74.3372
662.0000	75.3367
661.0000	76.4774
660.0000	77.5961
659.0000	78.4872
658.0000	78.9926
657.0000	79.0068
656.0000	78.5378
655.0000	77.6699
654.0000	76.5489
653.0000	75.3652
652.0000	74.341
651.0000	73.6663
650.0000	73.4498
649.0000	73.7121
648.0000	74.425
647.0000	75.4494
646.0000	76.6036
645.0000	77.659
644.0000	78.4225
643.0000	78.7497
642.0000	78.5701
641.0000	77.9121
640.0000	76.914
639.0000	75.7664
638.0000	74.6978
637.0000	73.9054
636.0000	73.5663
635.0000	73.7183
634.0000	74.334
633.0000	75.295
632.0000	76.3987
631.0000	77.4338
630.0000	78.1731
629.0000	78.4789
628.0000	78.2642
627.0000	77.579
626.0000	76.5749
625.0000	75.454
624.0000	74.4712
623.0000	73.8173
622.0000	73.6394
621.0000	73.9671
620.0000	74.7268
619.0000	75.7539
618.0000	76.8285
617.0000	77.7024
616.0000	78.1696
615.0000	78.1208
614.0000	77.5676
613.0000	76.6418
612.0000	75.5556
611.0000	74.566
610.0000	73.9012
609.0000	73.7149
608.0000	74.0441
607.0000	74.8028
606.0000	75.8211
605.0000	76.83
604.0000	77.5868
603.0000	77.8954
602.0000	77.6724
601.0000	76.9776
600.0000	76.0093
599.0000	74.9986
598.0000	74.2066
597.0000	73.8352
596.0000	73.9792
595.0000	74.6052
594.0000	75.5457
593.0000	76.5281
592.0000	77.2851
591.0000	77.6166
590.0000	77.4088
589.0000	76.7284
588.0000	75.7629
587.0000	74.794
586.0000	74.0909
585.0000	73.8243
584.0000	74.0733
583.0000	74.7668
582.0000	75.7056
581.0000	76.604
580.0000	77.1846
579.0000	77.2786
578.0000	76.8529
577.0000	76.0618
576.0000	75.1323
575.0000	74.3345
574.0000	73.9249
573.0000	74.0299
572.0000	74.5936
571.0000	75.4358
570.0000	76.3102
569.0000	76.9191
568.0000	77.049
567.0000	76.6598
566.0000	75.8958
565.0000	75.0182
564.0000	74.3043
563.0000	73.9809
562.0000	74.1518
561.0000	74.7619
560.0000	75.5863
559.0000	76.3321
558.0000	76.7269
557.0000	76.6093
556.0000	76.0572
555.0000	75.2531
554.0000	74.496
553.0000	74.0568
552.0000	74.0736
551.0000	74.5512
550.0000	75.301
549.0000	76.0279
548.0000	76.4505
547.0000	76.3826
546.0000	75.8801
545.0000	75.1425
544.0000	74.4609
543.0000	74.1031
542.0000	74.1801
541.0000	74.6749
540.0000	75.3716
539.0000	75.9613
538.0000	76.1978
537.0000	75.9655
536.0000	75.3708
535.0000	74.6842
534.0000	74.172
533.0000	74.0464
532.0000	74.3471
531.0000	74.9356
530.0000	75.554
529.0000	75.9027
528.0000	75.8207
527.0000	75.3571
526.0000	74.73
525.0000	74.2296
524.0000	74.0528
523.0000	74.2752
522.0000	74.7928
521.0000	75.3409
520.0000	75.651
519.0000	75.5497
518.0000	75.1202
517.0000	74.5774
516.0000	74.1791
515.0000	74.1049
514.0000	74.3937
513.0000	74.8656
512.0000	75.2768
511.0000	75.371
510.0000	75.1222
509.0000	74.6607
508.0000	74.2339
507.0000	74.0481
506.0000	74.176
505.0000	74.5596
504.0000	74.9439
503.0000	75.0952
502.0000	74.9273
501.0000	74.5672
500.0000	74.2306
499.0000	74.0756
498.0000	74.1786
497.0000	74.4934
496.0000	74.7762
495.0000	74.8477
494.0000	74.6665
493.0000	74.3333
492.0000	74.0714
491.0000	74.0087
490.0000	74.1623
489.0000	74.4091
488.0000	74.5756
487.0000	74.5316
486.0000	74.3214
485.0000	74.0766
484.0000	73.9461
483.0000	74.0033
482.0000	74.1807
481.0000	74.3371
480.0000	74.3558
479.0000	74.2032
478.0000	74.0164
477.0000	73.8881
476.0000	73.8857
475.0000	73.9921
474.0000	74.0869
473.0000	74.0978
472.0000	74.0103
471.0000	73.8945
470.0000	73.8158
469.0000	73.8004
468.0000	73.8496
467.0000	73.8749
466.0000	73.8591
465.0000	73.8135
464.0000	73.7487
463.0000	73.7049
462.0000	73.6775
461.0000	73.662
460.0000	73.6553
459.0000	73.6509
458.0000	73.6515
457.0000	73.6381
456.0000	73.5651
455.0000	73.4672
454.0000	73.405
453.0000	73.4325
452.0000	73.4834
451.0000	73.4872
450.0000	73.4016
449.0000	73.2385
448.0000	73.1522
447.0000	73.2091
446.0000	73.2989
445.0000	73.3197
444.0000	73.1712
443.0000	72.9749
442.0000	72.914
441.0000	73.0154
440.0000	73.1507
439.0000	73.1116
438.0000	72.9022
437.0000	72.7067
436.0000	72.7266
435.0000	72.8923
434.0000	72.9417
433.0000	72.7497
432.0000	72.4827
431.0000	72.4266
430.0000	72.6108
429.0000	72.7319
428.0000	72.5957
427.0000	72.2922
426.0000	72.1821
425.0000	72.3439
424.0000	72.4829
423.0000	72.3342
422.0000	71.988
421.0000	71.8821
420.0000	72.0947
419.0000	72.2115
418.0000	71.9808
417.0000	71.6675
416.0000	71.6545
415.0000	71.8835
414.0000	71.8923
413.0000	71.5839
412.0000	71.3538
411.0000	71.4908
410.0000	71.6204
409.0000	71.4071
408.0000	71.0789
407.0000	71.0857
406.0000	71.2413
405.0000	71.1036
404.0000	70.7743
403.0000	70.732
402.0000	70.8842
401.0000	70.7993
400.0000	70.4714
399.0000	70.4141
398.0000	70.4739
397.0000	70.2583
396.0000	69.9939
395.0000	69.9157
394.0000	69.8641
393.0000	69.6066
392.0000	69.4278
391.0000	69.3691
390.0000	69.1851
389.0000	68.9531
388.0000	68.7785
387.0000	68.6029
386.0000	68.3992
385.0000	68.1397
384.0000	67.8723
383.0000	67.6796
382.0000	67.3261
381.0000	66.9364
380.0000	66.6956
379.0000	66.1154
378.0000	65.65
377.0000	65.0561
376.0000	64.1165
375.0000	63.1059
374.0000	61.451
373.0000	59.0938
372.0000	55.7367
371.0000	50.807
370.0000	44.3741
369.0000	36.2061
368.0000	27.6372
367.0000	19.5677
366.0000	12.6611
365.0000	7.14954
364.0000	3.27109
363.0000	1.06752
362.0000	0.216519
361.0000	0.0389144
360.0000	0.0214489
359.0000	0.0170164
358.0000	0.0141826
357.0000	0.0127714
356.0000	0.0112614
355.0000	0.0108872
354.0000	0.00909405
353.0000	0.00824134
352.0000	0.00786267
351.0000	0.00767947
350.0000	0.00729719
349.0000	0.00692373
348.0000	0.00701276
347.0000	0.00729794
346.0000	0.00701176
345.0000	0.00653821
344.0000	0.00606878
343.0000	0.00549864
342.0000	0.00596684
341.0000	0.00549446
340.0000	0.0309776
339.0000	0.0304251
338.0000	0.0300993
337.0000	0.0298808
336.0000	0.0289072
335.0000	0.0281487
334.0000	0.0266482
333.0000	0.0256881
332.0000	0.0248169
331.0000	0.0235265
330.0000	0.0230766
329.0000	0.022313
328.0000	0.0207262
327.0000	0.0202877
326.0000	0.0199601
325.0000	0.0197311
324.0000	0.0196058
323.0000	0.018441
322.0000	0.0181158
321.0000	0.0179924
320.0000	0.016939
319.0000	0.0168269
318.0000	0.0160921
317.0000	0.0155644
316.0000	0.0153366
315.0000	0.0146994
314.0000	0.0144878
313.0000	0.0142545
312.0000	0.0143544
311.0000	0.0143405
310.0000	0.0145497
309.0000	0.0144398
308.0000	0.0140051
307.0000	0.0142112
306.0000	0.0136762
305.0000	0.0132505
304.0000	0.0129236
303.0000	0.0131218
302.0000	0.0130102
301.0000	0.0125803
300.0000	0.0121664
